SIMFIT RESULTS
==============

Dataset : /opt/topspin3.5pl6/data/e3b/joachim/87Rb-CRN/48/pdata/991/ct1t2.txt

INTENSITY fit : Exponential decay (T2 or T1rho) : I[t]=I[0]*exp(-t/T)

507 points for Peak 1

Converged after 10000 iterations!

Results     Comp. 1       Comp. 2    

I[0]  =    3.062e-01     1.067e+00  
T     =      29.948m      289.292s  

RSS   =    3.918e-01
SD    =    2.780e-02

Point       Tau          Expt          Calc       Difference

    1       1.000s     1.000e+00     1.063e+00    6.339e-02
    2       2.000s     9.985e-01     1.060e+00    6.127e-02
    3       3.000s     9.967e-01     1.056e+00    5.941e-02
    4       4.000s     9.942e-01     1.052e+00    5.826e-02
    5       5.000s     9.912e-01     1.049e+00    5.763e-02
    6       6.000s     9.882e-01     1.045e+00    5.699e-02
    7       7.000s     9.855e-01     1.042e+00    5.607e-02
    8       8.000s     9.830e-01     1.038e+00    5.499e-02
    9       9.000s     9.804e-01     1.034e+00    5.396e-02
   10      10.000s     9.779e-01     1.031e+00    5.294e-02
   11      11.000s     9.756e-01     1.027e+00    5.170e-02
   12      12.000s     9.736e-01     1.024e+00    5.010e-02
   13      13.000s     9.719e-01     1.020e+00    4.833e-02
   14      14.000s     9.699e-01     1.017e+00    4.676e-02
   15      15.000s     9.676e-01     1.013e+00    4.556e-02
   16      16.000s     9.651e-01     1.010e+00    4.454e-02
   17      17.000s     9.628e-01     1.006e+00    4.336e-02
   18      18.000s     9.607e-01     1.003e+00    4.198e-02
   19      19.000s     9.585e-01     9.992e-01    4.072e-02
   20      20.000s     9.560e-01     9.958e-01    3.978e-02
   21      21.000s     9.534e-01     9.924e-01    3.892e-02
   22      22.000s     9.512e-01     9.889e-01    3.777e-02
   23      23.000s     9.492e-01     9.855e-01    3.631e-02
   24      24.000s     9.471e-01     9.821e-01    3.500e-02
   25      25.000s     9.446e-01     9.787e-01    3.417e-02
   26      26.000s     9.417e-01     9.754e-01    3.362e-02
   27      27.000s     9.392e-01     9.720e-01    3.283e-02
   28      28.000s     9.371e-01     9.686e-01    3.153e-02
   29      29.000s     9.353e-01     9.653e-01    3.000e-02
   30      30.000s     9.332e-01     9.620e-01    2.877e-02
   31      31.000s     9.305e-01     9.586e-01    2.813e-02
   32      32.000s     9.274e-01     9.553e-01    2.792e-02
   33      33.000s     9.244e-01     9.520e-01    2.760e-02
   34      34.000s     9.220e-01     9.488e-01    2.671e-02
   35      35.000s     9.202e-01     9.455e-01    2.523e-02
   36      36.000s     9.187e-01     9.422e-01    2.353e-02
   37      37.000s     9.170e-01     9.390e-01    2.198e-02
   38      38.000s     9.150e-01     9.357e-01    2.072e-02
   39      39.000s     9.127e-01     9.325e-01    1.978e-02
   40      40.000s     9.101e-01     9.293e-01    1.920e-02
   41      41.000s     9.073e-01     9.261e-01    1.878e-02
   42      42.000s     9.047e-01     9.229e-01    1.814e-02
   43      43.000s     9.027e-01     9.197e-01    1.703e-02
   44      44.000s     9.007e-01     9.165e-01    1.578e-02
   45      45.000s     8.985e-01     9.134e-01    1.489e-02
   46      46.000s     8.959e-01     9.102e-01    1.434e-02
   47      47.000s     8.935e-01     9.071e-01    1.360e-02
   48      48.000s     8.914e-01     9.039e-01    1.252e-02
   49      49.000s     8.891e-01     9.008e-01    1.168e-02
   50      50.000s     8.860e-01     8.977e-01    1.167e-02
   51      51.000s     8.825e-01     8.946e-01    1.208e-02
   52      52.000s     8.797e-01     8.915e-01    1.187e-02
   53      53.000s     8.779e-01     8.884e-01    1.056e-02
   54      54.000s     8.766e-01     8.854e-01    8.775e-03
   55      55.000s     8.750e-01     8.823e-01    7.311e-03
   56      56.000s     8.730e-01     8.793e-01    6.308e-03
   57      57.000s     8.708e-01     8.762e-01    5.449e-03
   58      58.000s     8.685e-01     8.732e-01    4.709e-03
   59      59.000s     8.658e-01     8.702e-01    4.445e-03
   60      60.000s     8.624e-01     8.672e-01    4.783e-03
   61      61.000s     8.589e-01     8.642e-01    5.294e-03
   62      62.000s     8.559e-01     8.612e-01    5.343e-03
   63      63.000s     8.536e-01     8.583e-01    4.610e-03
   64      64.000s     8.520e-01     8.553e-01    3.244e-03
   65      65.000s     8.506e-01     8.523e-01    1.699e-03
   66      66.000s     8.489e-01     8.494e-01    4.598e-04
   67      67.000s     8.468e-01     8.465e-01   -2.871e-04
   68      68.000s     8.444e-01     8.435e-01   -8.090e-04
   69      69.000s     8.422e-01     8.406e-01   -1.527e-03
   70      70.000s     8.402e-01     8.377e-01   -2.474e-03
   71      71.000s     8.381e-01     8.348e-01   -3.211e-03
   72      72.000s     8.354e-01     8.320e-01   -3.396e-03
   73      73.000s     8.324e-01     8.291e-01   -3.288e-03
   74      74.000s     8.297e-01     8.262e-01   -3.511e-03
   75      75.000s     8.278e-01     8.234e-01   -4.379e-03
   76      76.000s     8.262e-01     8.205e-01   -5.610e-03
   77      77.000s     8.244e-01     8.177e-01   -6.656e-03
   78      78.000s     8.220e-01     8.149e-01   -7.145e-03
   79      79.000s     8.191e-01     8.121e-01   -7.058e-03
   80      80.000s     8.160e-01     8.093e-01   -6.677e-03
   81      81.000s     8.129e-01     8.065e-01   -6.445e-03
   82      82.000s     8.104e-01     8.037e-01   -6.687e-03
   83      83.000s     8.083e-01     8.009e-01   -7.387e-03
   84      84.000s     8.065e-01     7.982e-01   -8.299e-03
   85      85.000s     8.047e-01     7.954e-01   -9.276e-03
   86      86.000s     8.030e-01     7.927e-01   -1.035e-02
   87      87.000s     8.014e-01     7.899e-01   -1.146e-02
   88      88.000s     7.995e-01     7.872e-01   -1.230e-02
   89      89.000s     7.971e-01     7.845e-01   -1.260e-02
   90      90.000s     7.943e-01     7.818e-01   -1.249e-02
   91      91.000s     7.913e-01     7.791e-01   -1.227e-02
   92      92.000s     7.885e-01     7.764e-01   -1.210e-02
   93      93.000s     7.858e-01     7.737e-01   -1.205e-02
   94      94.000s     7.834e-01     7.710e-01   -1.236e-02
   95      95.000s     7.817e-01     7.684e-01   -1.337e-02
   96      96.000s     7.807e-01     7.657e-01   -1.500e-02
   97      97.000s     7.797e-01     7.631e-01   -1.660e-02
   98      98.000s     7.780e-01     7.605e-01   -1.751e-02
   99      99.000s     7.756e-01     7.578e-01   -1.778e-02
  100     100.000s     7.732e-01     7.552e-01   -1.794e-02
  101     101.000s     7.710e-01     7.526e-01   -1.836e-02
  102     102.000s     7.688e-01     7.500e-01   -1.882e-02
  103     103.000s     7.664e-01     7.474e-01   -1.898e-02
  104     104.000s     7.637e-01     7.448e-01   -1.882e-02
  105     105.000s     7.610e-01     7.423e-01   -1.875e-02
  106     106.000s     7.588e-01     7.397e-01   -1.909e-02
  107     107.000s     7.569e-01     7.372e-01   -1.973e-02
  108     108.000s     7.548e-01     7.346e-01   -2.016e-02
  109     109.000s     7.520e-01     7.321e-01   -1.995e-02
  110     110.000s     7.488e-01     7.296e-01   -1.920e-02
  111     111.000s     7.455e-01     7.270e-01   -1.848e-02
  112     112.000s     7.429e-01     7.245e-01   -1.839e-02
  113     113.000s     7.410e-01     7.220e-01   -1.893e-02
  114     114.000s     7.391e-01     7.195e-01   -1.959e-02
  115     115.000s     7.370e-01     7.171e-01   -1.991e-02
  116     116.000s     7.345e-01     7.146e-01   -1.990e-02
  117     117.000s     7.321e-01     7.121e-01   -1.997e-02
  118     118.000s     7.301e-01     7.097e-01   -2.041e-02
  119     119.000s     7.284e-01     7.072e-01   -2.117e-02
  120     120.000s     7.267e-01     7.048e-01   -2.196e-02
  121     121.000s     7.248e-01     7.023e-01   -2.250e-02
  122     122.000s     7.226e-01     6.999e-01   -2.271e-02
  123     123.000s     7.202e-01     6.975e-01   -2.272e-02
  124     124.000s     7.180e-01     6.951e-01   -2.295e-02
  125     125.000s     7.164e-01     6.927e-01   -2.375e-02
  126     126.000s     7.153e-01     6.903e-01   -2.503e-02
  127     127.000s     7.140e-01     6.879e-01   -2.612e-02
  128     128.000s     7.120e-01     6.855e-01   -2.646e-02
  129     129.000s     7.094e-01     6.832e-01   -2.617e-02
  130     130.000s     7.068e-01     6.808e-01   -2.594e-02
  131     131.000s     7.047e-01     6.785e-01   -2.623e-02
  132     132.000s     7.029e-01     6.761e-01   -2.679e-02
  133     133.000s     7.009e-01     6.738e-01   -2.710e-02
  134     134.000s     6.985e-01     6.715e-01   -2.702e-02
  135     135.000s     6.961e-01     6.692e-01   -2.696e-02
  136     136.000s     6.942e-01     6.668e-01   -2.730e-02
  137     137.000s     6.924e-01     6.645e-01   -2.790e-02
  138     138.000s     6.906e-01     6.623e-01   -2.830e-02
  139     139.000s     6.882e-01     6.600e-01   -2.825e-02
  140     140.000s     6.856e-01     6.577e-01   -2.790e-02
  141     141.000s     6.829e-01     6.554e-01   -2.746e-02
  142     142.000s     6.801e-01     6.532e-01   -2.695e-02
  143     143.000s     6.773e-01     6.509e-01   -2.635e-02
  144     144.000s     6.745e-01     6.487e-01   -2.583e-02
  145     145.000s     6.721e-01     6.464e-01   -2.570e-02
  146     146.000s     6.702e-01     6.442e-01   -2.601e-02
  147     147.000s     6.685e-01     6.420e-01   -2.651e-02
  148     148.000s     6.666e-01     6.398e-01   -2.683e-02
  149     149.000s     6.644e-01     6.375e-01   -2.688e-02
  150     150.000s     6.622e-01     6.353e-01   -2.684e-02
  151     151.000s     6.600e-01     6.332e-01   -2.689e-02
  152     152.000s     6.580e-01     6.310e-01   -2.699e-02
  153     153.000s     6.559e-01     6.288e-01   -2.708e-02
  154     154.000s     6.538e-01     6.266e-01   -2.721e-02
  155     155.000s     6.520e-01     6.245e-01   -2.752e-02
  156     156.000s     6.503e-01     6.223e-01   -2.802e-02
  157     157.000s     6.487e-01     6.202e-01   -2.850e-02
  158     158.000s     6.467e-01     6.180e-01   -2.872e-02
  159     159.000s     6.445e-01     6.159e-01   -2.860e-02
  160     160.000s     6.420e-01     6.138e-01   -2.827e-02
  161     161.000s     6.396e-01     6.116e-01   -2.793e-02
  162     162.000s     6.373e-01     6.095e-01   -2.781e-02
  163     163.000s     6.354e-01     6.074e-01   -2.799e-02
  164     164.000s     6.336e-01     6.053e-01   -2.829e-02
  165     165.000s     6.316e-01     6.032e-01   -2.834e-02
  166     166.000s     6.291e-01     6.012e-01   -2.797e-02
  167     167.000s     6.266e-01     5.991e-01   -2.748e-02
  168     168.000s     6.245e-01     5.970e-01   -2.745e-02
  169     169.000s     6.230e-01     5.950e-01   -2.809e-02
  170     170.000s     6.218e-01     5.929e-01   -2.891e-02
  171     171.000s     6.201e-01     5.909e-01   -2.925e-02
  172     172.000s     6.179e-01     5.888e-01   -2.911e-02
  173     173.000s     6.158e-01     5.868e-01   -2.903e-02
  174     174.000s     6.141e-01     5.848e-01   -2.937e-02
  175     175.000s     6.126e-01     5.827e-01   -2.982e-02
  176     176.000s     6.106e-01     5.807e-01   -2.991e-02
  177     177.000s     6.084e-01     5.787e-01   -2.971e-02
  178     178.000s     6.065e-01     5.767e-01   -2.976e-02
  179     179.000s     6.051e-01     5.747e-01   -3.037e-02
  180     180.000s     6.040e-01     5.728e-01   -3.121e-02
  181     181.000s     6.026e-01     5.708e-01   -3.181e-02
  182     182.000s     6.008e-01     5.688e-01   -3.195e-02
  183     183.000s     5.985e-01     5.669e-01   -3.169e-02
  184     184.000s     5.960e-01     5.649e-01   -3.114e-02
  185     185.000s     5.934e-01     5.629e-01   -3.046e-02
  186     186.000s     5.909e-01     5.610e-01   -2.991e-02
  187     187.000s     5.887e-01     5.591e-01   -2.965e-02
  188     188.000s     5.867e-01     5.571e-01   -2.960e-02
  189     189.000s     5.848e-01     5.552e-01   -2.955e-02
  190     190.000s     5.828e-01     5.533e-01   -2.955e-02
  191     191.000s     5.811e-01     5.514e-01   -2.975e-02
  192     192.000s     5.795e-01     5.495e-01   -3.000e-02
  193     193.000s     5.775e-01     5.476e-01   -2.991e-02
  194     194.000s     5.751e-01     5.457e-01   -2.942e-02
  195     195.000s     5.728e-01     5.438e-01   -2.895e-02
  196     196.000s     5.707e-01     5.419e-01   -2.880e-02
  197     197.000s     5.688e-01     5.401e-01   -2.874e-02
  198     198.000s     5.666e-01     5.382e-01   -2.836e-02
  199     199.000s     5.641e-01     5.364e-01   -2.771e-02
  200     200.000s     5.617e-01     5.345e-01   -2.721e-02
  201     201.000s     5.597e-01     5.327e-01   -2.707e-02
  202     202.000s     5.579e-01     5.308e-01   -2.709e-02
  203     203.000s     5.561e-01     5.290e-01   -2.710e-02
  204     204.000s     5.542e-01     5.272e-01   -2.708e-02
  205     205.000s     5.523e-01     5.253e-01   -2.693e-02
  206     206.000s     5.500e-01     5.235e-01   -2.649e-02
  207     207.000s     5.478e-01     5.217e-01   -2.604e-02
  208     208.000s     5.462e-01     5.199e-01   -2.633e-02
  209     209.000s     5.457e-01     5.181e-01   -2.754e-02
  210     210.000s     5.452e-01     5.163e-01   -2.883e-02
  211     211.000s     5.437e-01     5.146e-01   -2.913e-02
  212     212.000s     5.412e-01     5.128e-01   -2.847e-02
  213     213.000s     5.388e-01     5.110e-01   -2.783e-02
  214     214.000s     5.371e-01     5.092e-01   -2.788e-02
  215     215.000s     5.357e-01     5.075e-01   -2.820e-02
  216     216.000s     5.339e-01     5.057e-01   -2.817e-02
  217     217.000s     5.318e-01     5.040e-01   -2.782e-02
  218     218.000s     5.298e-01     5.023e-01   -2.757e-02
  219     219.000s     5.279e-01     5.005e-01   -2.738e-02
  220     220.000s     5.257e-01     4.988e-01   -2.686e-02
  221     221.000s     5.231e-01     4.971e-01   -2.603e-02
  222     222.000s     5.209e-01     4.954e-01   -2.550e-02
  223     223.000s     5.193e-01     4.936e-01   -2.562e-02
  224     224.000s     5.180e-01     4.919e-01   -2.608e-02
  225     225.000s     5.165e-01     4.902e-01   -2.625e-02
  226     226.000s     5.145e-01     4.886e-01   -2.590e-02
  227     227.000s     5.121e-01     4.869e-01   -2.523e-02
  228     228.000s     5.098e-01     4.852e-01   -2.458e-02
  229     229.000s     5.077e-01     4.835e-01   -2.418e-02
  230     230.000s     5.060e-01     4.818e-01   -2.413e-02
  231     231.000s     5.044e-01     4.802e-01   -2.424e-02
  232     232.000s     5.027e-01     4.785e-01   -2.421e-02
  233     233.000s     5.009e-01     4.769e-01   -2.399e-02
  234     234.000s     4.992e-01     4.752e-01   -2.398e-02
  235     235.000s     4.981e-01     4.736e-01   -2.448e-02
  236     236.000s     4.972e-01     4.720e-01   -2.522e-02
  237     237.000s     4.960e-01     4.703e-01   -2.563e-02
  238     238.000s     4.942e-01     4.687e-01   -2.553e-02
  239     239.000s     4.924e-01     4.671e-01   -2.527e-02
  240     240.000s     4.907e-01     4.655e-01   -2.517e-02
  241     241.000s     4.891e-01     4.639e-01   -2.520e-02
  242     242.000s     4.874e-01     4.623e-01   -2.515e-02
  243     243.000s     4.857e-01     4.607e-01   -2.498e-02
  244     244.000s     4.838e-01     4.591e-01   -2.468e-02
  245     245.000s     4.817e-01     4.575e-01   -2.417e-02
  246     246.000s     4.795e-01     4.559e-01   -2.357e-02
  247     247.000s     4.776e-01     4.543e-01   -2.323e-02
  248     248.000s     4.761e-01     4.528e-01   -2.336e-02
  249     249.000s     4.749e-01     4.512e-01   -2.367e-02
  250     250.000s     4.733e-01     4.497e-01   -2.369e-02
  251     251.000s     4.715e-01     4.481e-01   -2.340e-02
  252     252.000s     4.697e-01     4.466e-01   -2.317e-02
  253     253.000s     4.681e-01     4.450e-01   -2.306e-02
  254     254.000s     4.662e-01     4.435e-01   -2.275e-02
  255     255.000s     4.641e-01     4.420e-01   -2.210e-02
  256     256.000s     4.619e-01     4.404e-01   -2.147e-02
  257     257.000s     4.602e-01     4.389e-01   -2.129e-02
  258     258.000s     4.589e-01     4.374e-01   -2.148e-02
  259     259.000s     4.575e-01     4.359e-01   -2.159e-02
  260     260.000s     4.557e-01     4.344e-01   -2.131e-02
  261     261.000s     4.536e-01     4.329e-01   -2.071e-02
  262     262.000s     4.514e-01     4.314e-01   -2.002e-02
  263     263.000s     4.494e-01     4.299e-01   -1.947e-02
  264     264.000s     4.476e-01     4.284e-01   -1.915e-02
  265     265.000s     4.459e-01     4.269e-01   -1.900e-02
  266     266.000s     4.442e-01     4.255e-01   -1.877e-02
  267     267.000s     4.424e-01     4.240e-01   -1.840e-02
  268     268.000s     4.408e-01     4.225e-01   -1.823e-02
  269     269.000s     4.397e-01     4.211e-01   -1.860e-02
  270     270.000s     4.390e-01     4.196e-01   -1.935e-02
  271     271.000s     4.380e-01     4.182e-01   -1.980e-02
  272     272.000s     4.363e-01     4.167e-01   -1.956e-02
  273     273.000s     4.342e-01     4.153e-01   -1.890e-02
  274     274.000s     4.322e-01     4.139e-01   -1.829e-02
  275     275.000s     4.303e-01     4.124e-01   -1.782e-02
  276     276.000s     4.284e-01     4.110e-01   -1.734e-02
  277     277.000s     4.266e-01     4.096e-01   -1.696e-02
  278     278.000s     4.251e-01     4.082e-01   -1.696e-02
  279     279.000s     4.240e-01     4.068e-01   -1.727e-02
  280     280.000s     4.228e-01     4.054e-01   -1.746e-02
  281     281.000s     4.212e-01     4.040e-01   -1.727e-02
  282     282.000s     4.195e-01     4.026e-01   -1.690e-02
  283     283.000s     4.177e-01     4.012e-01   -1.650e-02
  284     284.000s     4.157e-01     3.998e-01   -1.587e-02
  285     285.000s     4.132e-01     3.984e-01   -1.478e-02
  286     286.000s     4.106e-01     3.970e-01   -1.354e-02
  287     287.000s     4.085e-01     3.957e-01   -1.282e-02
  288     288.000s     4.072e-01     3.943e-01   -1.291e-02
  289     289.000s     4.063e-01     3.930e-01   -1.330e-02
  290     290.000s     4.049e-01     3.916e-01   -1.327e-02
  291     291.000s     4.028e-01     3.902e-01   -1.260e-02
  292     292.000s     4.006e-01     3.889e-01   -1.173e-02
  293     293.000s     3.988e-01     3.876e-01   -1.126e-02
  294     294.000s     3.976e-01     3.862e-01   -1.136e-02
  295     295.000s     3.966e-01     3.849e-01   -1.171e-02
  296     296.000s     3.955e-01     3.836e-01   -1.198e-02
  297     297.000s     3.944e-01     3.822e-01   -1.214e-02
  298     298.000s     3.932e-01     3.809e-01   -1.226e-02
  299     299.000s     3.918e-01     3.796e-01   -1.216e-02
  300     300.000s     3.898e-01     3.783e-01   -1.152e-02
  301     301.000s     3.874e-01     3.770e-01   -1.042e-02
  302     302.000s     3.852e-01     3.757e-01   -9.540e-03
  303     303.000s     3.839e-01     3.744e-01   -9.466e-03
  304     304.000s     3.831e-01     3.731e-01   -9.970e-03
  305     305.000s     3.821e-01     3.718e-01   -1.029e-02
  306     306.000s     3.806e-01     3.705e-01   -1.006e-02
  307     307.000s     3.789e-01     3.692e-01   -9.650e-03
  308     308.000s     3.774e-01     3.680e-01   -9.414e-03
  309     309.000s     3.758e-01     3.667e-01   -9.080e-03
  310     310.000s     3.736e-01     3.654e-01   -8.146e-03
  311     311.000s     3.708e-01     3.642e-01   -6.631e-03
  312     312.000s     3.680e-01     3.629e-01   -5.087e-03
  313     313.000s     3.657e-01     3.617e-01   -4.018e-03
  314     314.000s     3.640e-01     3.604e-01   -3.627e-03
  315     315.000s     3.632e-01     3.592e-01   -4.019e-03
  316     316.000s     3.631e-01     3.579e-01   -5.143e-03
  317     317.000s     3.631e-01     3.567e-01   -6.432e-03
  318     318.000s     3.624e-01     3.555e-01   -6.964e-03
  319     319.000s     3.606e-01     3.542e-01   -6.322e-03
  320     320.000s     3.581e-01     3.530e-01   -5.100e-03
  321     321.000s     3.560e-01     3.518e-01   -4.240e-03
  322     322.000s     3.546e-01     3.506e-01   -4.010e-03
  323     323.000s     3.533e-01     3.494e-01   -3.894e-03
  324     324.000s     3.516e-01     3.482e-01   -3.390e-03
  325     325.000s     3.496e-01     3.470e-01   -2.594e-03
  326     326.000s     3.478e-01     3.458e-01   -1.983e-03
  327     327.000s     3.465e-01     3.446e-01   -1.916e-03
  328     328.000s     3.458e-01     3.434e-01   -2.409e-03
  329     329.000s     3.453e-01     3.422e-01   -3.138e-03
  330     330.000s     3.446e-01     3.410e-01   -3.567e-03
  331     331.000s     3.431e-01     3.398e-01   -3.299e-03
  332     332.000s     3.412e-01     3.387e-01   -2.484e-03
  333     333.000s     3.392e-01     3.375e-01   -1.730e-03
  334     334.000s     3.378e-01     3.363e-01   -1.438e-03
  335     335.000s     3.365e-01     3.352e-01   -1.360e-03
  336     336.000s     3.350e-01     3.340e-01   -1.010e-03
  337     337.000s     3.332e-01     3.329e-01   -3.592e-04
  338     338.000s     3.316e-01     3.317e-01    1.118e-04
  339     339.000s     3.305e-01     3.306e-01    4.047e-05
  340     340.000s     3.298e-01     3.294e-01   -3.956e-04
  341     341.000s     3.290e-01     3.283e-01   -7.123e-04
  342     342.000s     3.277e-01     3.272e-01   -5.644e-04
  343     343.000s     3.259e-01     3.260e-01    1.041e-04
  344     344.000s     3.238e-01     3.249e-01    1.132e-03
  345     345.000s     3.216e-01     3.238e-01    2.198e-03
  346     346.000s     3.197e-01     3.227e-01    2.945e-03
  347     347.000s     3.183e-01     3.216e-01    3.228e-03
  348     348.000s     3.172e-01     3.205e-01    3.233e-03
  349     349.000s     3.161e-01     3.193e-01    3.244e-03
  350     350.000s     3.149e-01     3.182e-01    3.357e-03
  351     351.000s     3.136e-01     3.171e-01    3.502e-03
  352     352.000s     3.124e-01     3.161e-01    3.663e-03
  353     353.000s     3.110e-01     3.150e-01    3.918e-03
  354     354.000s     3.096e-01     3.139e-01    4.279e-03
  355     355.000s     3.081e-01     3.128e-01    4.663e-03
  356     356.000s     3.067e-01     3.117e-01    5.051e-03
  357     357.000s     3.051e-01     3.106e-01    5.544e-03
  358     358.000s     3.034e-01     3.096e-01    6.156e-03
  359     359.000s     3.018e-01     3.085e-01    6.702e-03
  360     360.000s     3.004e-01     3.074e-01    7.001e-03
  361     361.000s     2.992e-01     3.064e-01    7.175e-03
  362     362.000s     2.977e-01     3.053e-01    7.584e-03
  363     363.000s     2.959e-01     3.043e-01    8.404e-03
  364     364.000s     2.939e-01     3.032e-01    9.344e-03
  365     365.000s     2.923e-01     3.022e-01    9.884e-03
  366     366.000s     2.913e-01     3.011e-01    9.856e-03
  367     367.000s     2.904e-01     3.001e-01    9.716e-03
  368     368.000s     2.890e-01     2.990e-01    1.010e-02
  369     369.000s     2.870e-01     2.980e-01    1.106e-02
  370     370.000s     2.850e-01     2.970e-01    1.195e-02
  371     371.000s     2.838e-01     2.960e-01    1.214e-02
  372     372.000s     2.831e-01     2.949e-01    1.184e-02
  373     373.000s     2.821e-01     2.939e-01    1.185e-02
  374     374.000s     2.804e-01     2.929e-01    1.256e-02
  375     375.000s     2.785e-01     2.919e-01    1.342e-02
  376     376.000s     2.772e-01     2.909e-01    1.373e-02
  377     377.000s     2.764e-01     2.899e-01    1.353e-02
  378     378.000s     2.754e-01     2.889e-01    1.344e-02
  379     379.000s     2.741e-01     2.879e-01    1.375e-02
  380     380.000s     2.729e-01     2.869e-01    1.402e-02
  381     381.000s     2.721e-01     2.859e-01    1.378e-02
  382     382.000s     2.717e-01     2.849e-01    1.323e-02
  383     383.000s     2.710e-01     2.839e-01    1.293e-02
  384     384.000s     2.698e-01     2.830e-01    1.315e-02
  385     385.000s     2.683e-01     2.820e-01    1.368e-02
  386     386.000s     2.667e-01     2.810e-01    1.433e-02
  387     387.000s     2.649e-01     2.800e-01    1.510e-02
  388     388.000s     2.631e-01     2.791e-01    1.595e-02
  389     389.000s     2.614e-01     2.781e-01    1.675e-02
  390     390.000s     2.596e-01     2.771e-01    1.750e-02
  391     391.000s     2.578e-01     2.762e-01    1.836e-02
  392     392.000s     2.560e-01     2.752e-01    1.927e-02
  393     393.000s     2.545e-01     2.743e-01    1.979e-02
  394     394.000s     2.538e-01     2.733e-01    1.952e-02
  395     395.000s     2.537e-01     2.724e-01    1.869e-02
  396     396.000s     2.535e-01     2.715e-01    1.794e-02
  397     397.000s     2.528e-01     2.705e-01    1.775e-02
  398     398.000s     2.514e-01     2.696e-01    1.821e-02
  399     399.000s     2.495e-01     2.687e-01    1.919e-02
  400     400.000s     2.472e-01     2.677e-01    2.051e-02
  401     401.000s     2.450e-01     2.668e-01    2.181e-02
  402     402.000s     2.433e-01     2.659e-01    2.261e-02
  403     403.000s     2.422e-01     2.650e-01    2.275e-02
  404     404.000s     2.414e-01     2.641e-01    2.267e-02
  405     405.000s     2.402e-01     2.631e-01    2.298e-02
  406     406.000s     2.385e-01     2.622e-01    2.372e-02
  407     407.000s     2.370e-01     2.613e-01    2.431e-02
  408     408.000s     2.362e-01     2.604e-01    2.422e-02
  409     409.000s     2.359e-01     2.595e-01    2.362e-02
  410     410.000s     2.355e-01     2.586e-01    2.315e-02
  411     411.000s     2.345e-01     2.577e-01    2.327e-02
  412     412.000s     2.329e-01     2.569e-01    2.394e-02
  413     413.000s     2.311e-01     2.560e-01    2.488e-02
  414     414.000s     2.292e-01     2.551e-01    2.584e-02
  415     415.000s     2.275e-01     2.542e-01    2.671e-02
  416     416.000s     2.260e-01     2.533e-01    2.735e-02
  417     417.000s     2.247e-01     2.525e-01    2.773e-02
  418     418.000s     2.235e-01     2.516e-01    2.805e-02
  419     419.000s     2.221e-01     2.507e-01    2.862e-02
  420     420.000s     2.204e-01     2.498e-01    2.949e-02
  421     421.000s     2.187e-01     2.490e-01    3.033e-02
  422     422.000s     2.174e-01     2.481e-01    3.077e-02
  423     423.000s     2.164e-01     2.473e-01    3.082e-02
  424     424.000s     2.157e-01     2.464e-01    3.074e-02
  425     425.000s     2.150e-01     2.456e-01    3.054e-02
  426     426.000s     2.148e-01     2.447e-01    2.991e-02
  427     427.000s     2.151e-01     2.439e-01    2.881e-02
  428     428.000s     2.151e-01     2.430e-01    2.791e-02
  429     429.000s     2.140e-01     2.422e-01    2.816e-02
  430     430.000s     2.117e-01     2.414e-01    2.969e-02
  431     431.000s     2.090e-01     2.405e-01    3.148e-02
  432     432.000s     2.074e-01     2.397e-01    3.227e-02
  433     433.000s     2.071e-01     2.389e-01    3.179e-02
  434     434.000s     2.072e-01     2.380e-01    3.086e-02
  435     435.000s     2.068e-01     2.372e-01    3.045e-02
  436     436.000s     2.056e-01     2.364e-01    3.084e-02
  437     437.000s     2.039e-01     2.356e-01    3.166e-02
  438     438.000s     2.023e-01     2.348e-01    3.246e-02
  439     439.000s     2.009e-01     2.340e-01    3.310e-02
  440     440.000s     1.995e-01     2.332e-01    3.364e-02
  441     441.000s     1.981e-01     2.324e-01    3.426e-02
  442     442.000s     1.965e-01     2.316e-01    3.508e-02
  443     443.000s     1.947e-01     2.308e-01    3.602e-02
  444     444.000s     1.931e-01     2.300e-01    3.681e-02
  445     445.000s     1.920e-01     2.292e-01    3.715e-02
  446     446.000s     1.913e-01     2.284e-01    3.704e-02
  447     447.000s     1.908e-01     2.276e-01    3.681e-02
  448     448.000s     1.901e-01     2.268e-01    3.672e-02
  449     449.000s     1.892e-01     2.260e-01    3.680e-02
  450     450.000s     1.883e-01     2.252e-01    3.692e-02
  451     451.000s     1.874e-01     2.245e-01    3.711e-02
  452     452.000s     1.862e-01     2.237e-01    3.746e-02
  453     453.000s     1.849e-01     2.229e-01    3.803e-02
  454     454.000s     1.833e-01     2.221e-01    3.883e-02
  455     455.000s     1.815e-01     2.214e-01    3.991e-02
  456     456.000s     1.793e-01     2.206e-01    4.131e-02
  457     457.000s     1.771e-01     2.199e-01    4.278e-02
  458     458.000s     1.753e-01     2.191e-01    4.384e-02
  459     459.000s     1.742e-01     2.183e-01    4.413e-02
  460     460.000s     1.738e-01     2.176e-01    4.377e-02
  461     461.000s     1.737e-01     2.168e-01    4.315e-02
  462     462.000s     1.734e-01     2.161e-01    4.265e-02
  463     463.000s     1.729e-01     2.153e-01    4.244e-02
  464     464.000s     1.719e-01     2.146e-01    4.265e-02
  465     465.000s     1.705e-01     2.139e-01    4.336e-02
  466     466.000s     1.687e-01     2.131e-01    4.438e-02
  467     467.000s     1.671e-01     2.124e-01    4.525e-02
  468     468.000s     1.660e-01     2.116e-01    4.565e-02
  469     469.000s     1.652e-01     2.109e-01    4.576e-02
  470     470.000s     1.642e-01     2.102e-01    4.603e-02
  471     471.000s     1.628e-01     2.095e-01    4.664e-02
  472     472.000s     1.615e-01     2.087e-01    4.725e-02
  473     473.000s     1.606e-01     2.080e-01    4.746e-02
  474     474.000s     1.600e-01     2.073e-01    4.729e-02
  475     475.000s     1.594e-01     2.066e-01    4.718e-02
  476     476.000s     1.584e-01     2.059e-01    4.746e-02
  477     477.000s     1.571e-01     2.052e-01    4.810e-02
  478     478.000s     1.556e-01     2.045e-01    4.885e-02
  479     479.000s     1.542e-01     2.038e-01    4.953e-02
  480     480.000s     1.529e-01     2.030e-01    5.013e-02
  481     481.000s     1.517e-01     2.023e-01    5.066e-02
  482     482.000s     1.506e-01     2.017e-01    5.109e-02
  483     483.000s     1.496e-01     2.010e-01    5.138e-02
  484     484.000s     1.488e-01     2.003e-01    5.151e-02
  485     485.000s     1.480e-01     1.996e-01    5.156e-02
  486     486.000s     1.472e-01     1.989e-01    5.167e-02
  487     487.000s     1.462e-01     1.982e-01    5.197e-02
  488     488.000s     1.450e-01     1.975e-01    5.250e-02
  489     489.000s     1.437e-01     1.968e-01    5.310e-02
  490     490.000s     1.427e-01     1.962e-01    5.349e-02
  491     491.000s     1.420e-01     1.955e-01    5.351e-02
  492     492.000s     1.416e-01     1.948e-01    5.324e-02
