SIMFIT RESULTS
==============

Dataset : /opt/topspin3.5pl6/data/e3b/joachim/87Rb-CRN/3/pdata/992/ct1t2.txt

INTENSITY fit : Exponential decay (T2 or T1rho) : I[t]=I[0]*exp(-t/T)

1362 points for Peak 1

Converged after 10000 iterations!

Results     Comp. 1       Comp. 2    

I[0]  =    4.668e-01     1.054e+00  
T     =      31.459m      810.331s  

RSS   =    4.129e-01
SD    =    1.741e-02

Point       Tau          Expt          Calc       Difference

    1       1.000s     1.000e+00     1.053e+00    5.259e-02
    2       2.000s     9.992e-01     1.051e+00    5.210e-02
    3       3.000s     9.984e-01     1.050e+00    5.161e-02
    4       4.000s     9.976e-01     1.049e+00    5.112e-02
    5       5.000s     9.968e-01     1.047e+00    5.064e-02
    6       6.000s     9.960e-01     1.046e+00    5.016e-02
    7       7.000s     9.951e-01     1.045e+00    4.969e-02
    8       8.000s     9.943e-01     1.044e+00    4.921e-02
    9       9.000s     9.935e-01     1.042e+00    4.875e-02
   10      10.000s     9.927e-01     1.041e+00    4.828e-02
   11      11.000s     9.919e-01     1.040e+00    4.782e-02
   12      12.000s     9.910e-01     1.038e+00    4.736e-02
   13      13.000s     9.902e-01     1.037e+00    4.690e-02
   14      14.000s     9.894e-01     1.036e+00    4.644e-02
   15      15.000s     9.886e-01     1.035e+00    4.599e-02
   16      16.000s     9.877e-01     1.033e+00    4.554e-02
   17      17.000s     9.869e-01     1.032e+00    4.509e-02
   18      18.000s     9.861e-01     1.031e+00    4.465e-02
   19      19.000s     9.853e-01     1.029e+00    4.421e-02
   20      20.000s     9.844e-01     1.028e+00    4.376e-02
   21      21.000s     9.836e-01     1.027e+00    4.332e-02
   22      22.000s     9.828e-01     1.026e+00    4.289e-02
   23      23.000s     9.819e-01     1.024e+00    4.245e-02
   24      24.000s     9.811e-01     1.023e+00    4.202e-02
   25      25.000s     9.803e-01     1.022e+00    4.159e-02
   26      26.000s     9.795e-01     1.021e+00    4.116e-02
   27      27.000s     9.786e-01     1.019e+00    4.073e-02
   28      28.000s     9.778e-01     1.018e+00    4.030e-02
   29      29.000s     9.770e-01     1.017e+00    3.988e-02
   30      30.000s     9.761e-01     1.016e+00    3.946e-02
   31      31.000s     9.753e-01     1.014e+00    3.903e-02
   32      32.000s     9.745e-01     1.013e+00    3.862e-02
   33      33.000s     9.736e-01     1.012e+00    3.820e-02
   34      34.000s     9.728e-01     1.011e+00    3.779e-02
   35      35.000s     9.720e-01     1.009e+00    3.737e-02
   36      36.000s     9.711e-01     1.008e+00    3.696e-02
   37      37.000s     9.703e-01     1.007e+00    3.655e-02
   38      38.000s     9.695e-01     1.006e+00    3.615e-02
   39      39.000s     9.686e-01     1.004e+00    3.574e-02
   40      40.000s     9.678e-01     1.003e+00    3.534e-02
   41      41.000s     9.670e-01     1.002e+00    3.494e-02
   42      42.000s     9.661e-01     1.001e+00    3.454e-02
   43      43.000s     9.653e-01     9.994e-01    3.414e-02
   44      44.000s     9.645e-01     9.982e-01    3.374e-02
   45      45.000s     9.636e-01     9.970e-01    3.335e-02
   46      46.000s     9.628e-01     9.957e-01    3.295e-02
   47      47.000s     9.619e-01     9.945e-01    3.256e-02
   48      48.000s     9.611e-01     9.933e-01    3.216e-02
   49      49.000s     9.603e-01     9.921e-01    3.177e-02
   50      50.000s     9.594e-01     9.908e-01    3.138e-02
   51      51.000s     9.586e-01     9.896e-01    3.099e-02
   52      52.000s     9.578e-01     9.884e-01    3.060e-02
   53      53.000s     9.570e-01     9.872e-01    3.022e-02
   54      54.000s     9.561e-01     9.859e-01    2.983e-02
   55      55.000s     9.553e-01     9.847e-01    2.945e-02
   56      56.000s     9.545e-01     9.835e-01    2.906e-02
   57      57.000s     9.536e-01     9.823e-01    2.868e-02
   58      58.000s     9.528e-01     9.811e-01    2.830e-02
   59      59.000s     9.520e-01     9.799e-01    2.793e-02
   60      60.000s     9.511e-01     9.787e-01    2.755e-02
   61      61.000s     9.503e-01     9.775e-01    2.718e-02
   62      62.000s     9.494e-01     9.763e-01    2.681e-02
   63      63.000s     9.486e-01     9.751e-01    2.645e-02
   64      64.000s     9.478e-01     9.739e-01    2.609e-02
   65      65.000s     9.469e-01     9.727e-01    2.573e-02
   66      66.000s     9.461e-01     9.715e-01    2.538e-02
   67      67.000s     9.452e-01     9.703e-01    2.503e-02
   68      68.000s     9.444e-01     9.691e-01    2.469e-02
   69      69.000s     9.435e-01     9.679e-01    2.435e-02
   70      70.000s     9.427e-01     9.667e-01    2.402e-02
   71      71.000s     9.418e-01     9.655e-01    2.369e-02
   72      72.000s     9.409e-01     9.643e-01    2.336e-02
   73      73.000s     9.401e-01     9.631e-01    2.304e-02
   74      74.000s     9.392e-01     9.619e-01    2.273e-02
   75      75.000s     9.383e-01     9.607e-01    2.241e-02
   76      76.000s     9.374e-01     9.595e-01    2.211e-02
   77      77.000s     9.366e-01     9.584e-01    2.180e-02
   78      78.000s     9.357e-01     9.572e-01    2.151e-02
   79      79.000s     9.348e-01     9.560e-01    2.121e-02
   80      80.000s     9.339e-01     9.548e-01    2.092e-02
   81      81.000s     9.330e-01     9.536e-01    2.063e-02
   82      82.000s     9.321e-01     9.525e-01    2.034e-02
   83      83.000s     9.312e-01     9.513e-01    2.006e-02
   84      84.000s     9.303e-01     9.501e-01    1.978e-02
   85      85.000s     9.294e-01     9.489e-01    1.950e-02
   86      86.000s     9.286e-01     9.478e-01    1.922e-02
   87      87.000s     9.277e-01     9.466e-01    1.894e-02
   88      88.000s     9.268e-01     9.454e-01    1.866e-02
   89      89.000s     9.259e-01     9.443e-01    1.838e-02
   90      90.000s     9.250e-01     9.431e-01    1.810e-02
   91      91.000s     9.241e-01     9.419e-01    1.782e-02
   92      92.000s     9.232e-01     9.408e-01    1.755e-02
   93      93.000s     9.224e-01     9.396e-01    1.727e-02
   94      94.000s     9.215e-01     9.385e-01    1.699e-02
   95      95.000s     9.206e-01     9.373e-01    1.671e-02
   96      96.000s     9.197e-01     9.361e-01    1.643e-02
   97      97.000s     9.188e-01     9.350e-01    1.615e-02
   98      98.000s     9.180e-01     9.338e-01    1.587e-02
   99      99.000s     9.171e-01     9.327e-01    1.558e-02
  100     100.000s     9.162e-01     9.315e-01    1.530e-02
  101     101.000s     9.154e-01     9.304e-01    1.502e-02
  102     102.000s     9.145e-01     9.292e-01    1.474e-02
  103     103.000s     9.136e-01     9.281e-01    1.445e-02
  104     104.000s     9.128e-01     9.270e-01    1.417e-02
  105     105.000s     9.119e-01     9.258e-01    1.389e-02
  106     106.000s     9.111e-01     9.247e-01    1.361e-02
  107     107.000s     9.102e-01     9.235e-01    1.333e-02
  108     108.000s     9.093e-01     9.224e-01    1.305e-02
  109     109.000s     9.085e-01     9.213e-01    1.277e-02
  110     110.000s     9.076e-01     9.201e-01    1.250e-02
  111     111.000s     9.068e-01     9.190e-01    1.222e-02
  112     112.000s     9.059e-01     9.178e-01    1.195e-02
  113     113.000s     9.050e-01     9.167e-01    1.168e-02
  114     114.000s     9.042e-01     9.156e-01    1.141e-02
  115     115.000s     9.033e-01     9.145e-01    1.115e-02
  116     116.000s     9.024e-01     9.133e-01    1.088e-02
  117     117.000s     9.016e-01     9.122e-01    1.062e-02
  118     118.000s     9.007e-01     9.111e-01    1.036e-02
  119     119.000s     8.998e-01     9.100e-01    1.011e-02
  120     120.000s     8.990e-01     9.088e-01    9.852e-03
  121     121.000s     8.981e-01     9.077e-01    9.600e-03
  122     122.000s     8.972e-01     9.066e-01    9.349e-03
  123     123.000s     8.964e-01     9.055e-01    9.101e-03
  124     124.000s     8.955e-01     9.044e-01    8.853e-03
  125     125.000s     8.946e-01     9.032e-01    8.607e-03
  126     126.000s     8.938e-01     9.021e-01    8.362e-03
  127     127.000s     8.929e-01     9.010e-01    8.117e-03
  128     128.000s     8.920e-01     8.999e-01    7.873e-03
  129     129.000s     8.912e-01     8.988e-01    7.629e-03
  130     130.000s     8.903e-01     8.977e-01    7.384e-03
  131     131.000s     8.894e-01     8.966e-01    7.140e-03
  132     132.000s     8.886e-01     8.955e-01    6.894e-03
  133     133.000s     8.877e-01     8.944e-01    6.648e-03
  134     134.000s     8.869e-01     8.933e-01    6.400e-03
  135     135.000s     8.860e-01     8.922e-01    6.152e-03
  136     136.000s     8.852e-01     8.911e-01    5.902e-03
  137     137.000s     8.843e-01     8.900e-01    5.650e-03
  138     138.000s     8.835e-01     8.889e-01    5.396e-03
  139     139.000s     8.826e-01     8.878e-01    5.141e-03
  140     140.000s     8.818e-01     8.867e-01    4.884e-03
  141     141.000s     8.810e-01     8.856e-01    4.626e-03
  142     142.000s     8.801e-01     8.845e-01    4.365e-03
  143     143.000s     8.793e-01     8.834e-01    4.103e-03
  144     144.000s     8.785e-01     8.823e-01    3.840e-03
  145     145.000s     8.776e-01     8.812e-01    3.575e-03
  146     146.000s     8.768e-01     8.801e-01    3.309e-03
  147     147.000s     8.760e-01     8.790e-01    3.042e-03
  148     148.000s     8.752e-01     8.780e-01    2.774e-03
  149     149.000s     8.744e-01     8.769e-01    2.506e-03
  150     150.000s     8.736e-01     8.758e-01    2.237e-03
  151     151.000s     8.727e-01     8.747e-01    1.968e-03
  152     152.000s     8.719e-01     8.736e-01    1.700e-03
  153     153.000s     8.711e-01     8.726e-01    1.433e-03
  154     154.000s     8.703e-01     8.715e-01    1.166e-03
  155     155.000s     8.695e-01     8.704e-01    9.010e-04
  156     156.000s     8.687e-01     8.693e-01    6.375e-04
  157     157.000s     8.679e-01     8.683e-01    3.760e-04
  158     158.000s     8.671e-01     8.672e-01    1.168e-04
  159     159.000s     8.663e-01     8.661e-01   -1.398e-04
  160     160.000s     8.654e-01     8.651e-01   -3.935e-04
  161     161.000s     8.646e-01     8.640e-01   -6.440e-04
  162     162.000s     8.638e-01     8.629e-01   -8.911e-04
  163     163.000s     8.630e-01     8.619e-01   -1.135e-03
  164     164.000s     8.622e-01     8.608e-01   -1.374e-03
  165     165.000s     8.613e-01     8.597e-01   -1.610e-03
  166     166.000s     8.605e-01     8.587e-01   -1.842e-03
  167     167.000s     8.597e-01     8.576e-01   -2.069e-03
  168     168.000s     8.589e-01     8.566e-01   -2.293e-03
  169     169.000s     8.580e-01     8.555e-01   -2.512e-03
  170     170.000s     8.572e-01     8.544e-01   -2.727e-03
  171     171.000s     8.563e-01     8.534e-01   -2.938e-03
  172     172.000s     8.555e-01     8.523e-01   -3.144e-03
  173     173.000s     8.546e-01     8.513e-01   -3.347e-03
  174     174.000s     8.538e-01     8.502e-01   -3.546e-03
  175     175.000s     8.529e-01     8.492e-01   -3.741e-03
  176     176.000s     8.521e-01     8.481e-01   -3.932e-03
  177     177.000s     8.512e-01     8.471e-01   -4.119e-03
  178     178.000s     8.504e-01     8.461e-01   -4.304e-03
  179     179.000s     8.495e-01     8.450e-01   -4.484e-03
  180     180.000s     8.486e-01     8.440e-01   -4.662e-03
  181     181.000s     8.478e-01     8.429e-01   -4.836e-03
  182     182.000s     8.469e-01     8.419e-01   -5.007e-03
  183     183.000s     8.460e-01     8.408e-01   -5.175e-03
  184     184.000s     8.452e-01     8.398e-01   -5.341e-03
  185     185.000s     8.443e-01     8.388e-01   -5.503e-03
  186     186.000s     8.434e-01     8.377e-01   -5.662e-03
  187     187.000s     8.425e-01     8.367e-01   -5.818e-03
  188     188.000s     8.416e-01     8.357e-01   -5.972e-03
  189     189.000s     8.408e-01     8.346e-01   -6.122e-03
  190     190.000s     8.399e-01     8.336e-01   -6.270e-03
  191     191.000s     8.390e-01     8.326e-01   -6.415e-03
  192     192.000s     8.381e-01     8.316e-01   -6.556e-03
  193     193.000s     8.372e-01     8.305e-01   -6.695e-03
  194     194.000s     8.363e-01     8.295e-01   -6.831e-03
  195     195.000s     8.355e-01     8.285e-01   -6.963e-03
  196     196.000s     8.346e-01     8.275e-01   -7.093e-03
  197     197.000s     8.337e-01     8.264e-01   -7.220e-03
  198     198.000s     8.328e-01     8.254e-01   -7.344e-03
  199     199.000s     8.319e-01     8.244e-01   -7.465e-03
  200     200.000s     8.310e-01     8.234e-01   -7.584e-03
  201     201.000s     8.301e-01     8.224e-01   -7.700e-03
  202     202.000s     8.292e-01     8.214e-01   -7.814e-03
  203     203.000s     8.283e-01     8.203e-01   -7.926e-03
  204     204.000s     8.274e-01     8.193e-01   -8.036e-03
  205     205.000s     8.265e-01     8.183e-01   -8.144e-03
  206     206.000s     8.256e-01     8.173e-01   -8.251e-03
  207     207.000s     8.247e-01     8.163e-01   -8.357e-03
  208     208.000s     8.238e-01     8.153e-01   -8.462e-03
  209     209.000s     8.229e-01     8.143e-01   -8.566e-03
  210     210.000s     8.220e-01     8.133e-01   -8.670e-03
  211     211.000s     8.211e-01     8.123e-01   -8.774e-03
  212     212.000s     8.202e-01     8.113e-01   -8.878e-03
  213     213.000s     8.193e-01     8.103e-01   -8.983e-03
  214     214.000s     8.184e-01     8.093e-01   -9.088e-03
  215     215.000s     8.175e-01     8.083e-01   -9.194e-03
  216     216.000s     8.166e-01     8.073e-01   -9.301e-03
  217     217.000s     8.157e-01     8.063e-01   -9.410e-03
  218     218.000s     8.148e-01     8.053e-01   -9.520e-03
  219     219.000s     8.139e-01     8.043e-01   -9.631e-03
  220     220.000s     8.131e-01     8.033e-01   -9.745e-03
  221     221.000s     8.122e-01     8.023e-01   -9.860e-03
  222     222.000s     8.113e-01     8.013e-01   -9.977e-03
  223     223.000s     8.104e-01     8.003e-01   -1.010e-02
  224     224.000s     8.096e-01     7.994e-01   -1.022e-02
  225     225.000s     8.087e-01     7.984e-01   -1.034e-02
  226     226.000s     8.079e-01     7.974e-01   -1.046e-02
  227     227.000s     8.070e-01     7.964e-01   -1.059e-02
  228     228.000s     8.061e-01     7.954e-01   -1.072e-02
  229     229.000s     8.053e-01     7.944e-01   -1.085e-02
  230     230.000s     8.044e-01     7.935e-01   -1.098e-02
  231     231.000s     8.036e-01     7.925e-01   -1.111e-02
  232     232.000s     8.028e-01     7.915e-01   -1.125e-02
  233     233.000s     8.019e-01     7.905e-01   -1.138e-02
  234     234.000s     8.011e-01     7.896e-01   -1.152e-02
  235     235.000s     8.002e-01     7.886e-01   -1.166e-02
  236     236.000s     7.994e-01     7.876e-01   -1.179e-02
  237     237.000s     7.986e-01     7.866e-01   -1.193e-02
  238     238.000s     7.977e-01     7.857e-01   -1.207e-02
  239     239.000s     7.969e-01     7.847e-01   -1.221e-02
  240     240.000s     7.961e-01     7.837e-01   -1.234e-02
  241     241.000s     7.952e-01     7.828e-01   -1.248e-02
  242     242.000s     7.944e-01     7.818e-01   -1.262e-02
  243     243.000s     7.936e-01     7.808e-01   -1.275e-02
  244     244.000s     7.928e-01     7.799e-01   -1.289e-02
  245     245.000s     7.919e-01     7.789e-01   -1.302e-02
  246     246.000s     7.911e-01     7.780e-01   -1.315e-02
  247     247.000s     7.903e-01     7.770e-01   -1.328e-02
  248     248.000s     7.894e-01     7.760e-01   -1.341e-02
  249     249.000s     7.886e-01     7.751e-01   -1.354e-02
  250     250.000s     7.878e-01     7.741e-01   -1.366e-02
  251     251.000s     7.870e-01     7.732e-01   -1.379e-02
  252     252.000s     7.861e-01     7.722e-01   -1.391e-02
  253     253.000s     7.853e-01     7.713e-01   -1.403e-02
  254     254.000s     7.845e-01     7.703e-01   -1.414e-02
  255     255.000s     7.836e-01     7.694e-01   -1.426e-02
  256     256.000s     7.828e-01     7.684e-01   -1.437e-02
  257     257.000s     7.819e-01     7.675e-01   -1.448e-02
  258     258.000s     7.811e-01     7.665e-01   -1.458e-02
  259     259.000s     7.803e-01     7.656e-01   -1.468e-02
  260     260.000s     7.794e-01     7.646e-01   -1.478e-02
  261     261.000s     7.786e-01     7.637e-01   -1.488e-02
  262     262.000s     7.777e-01     7.627e-01   -1.497e-02
  263     263.000s     7.769e-01     7.618e-01   -1.506e-02
  264     264.000s     7.760e-01     7.609e-01   -1.514e-02
  265     265.000s     7.752e-01     7.599e-01   -1.523e-02
  266     266.000s     7.743e-01     7.590e-01   -1.531e-02
  267     267.000s     7.734e-01     7.581e-01   -1.538e-02
  268     268.000s     7.726e-01     7.571e-01   -1.546e-02
  269     269.000s     7.717e-01     7.562e-01   -1.553e-02
  270     270.000s     7.708e-01     7.552e-01   -1.559e-02
  271     271.000s     7.700e-01     7.543e-01   -1.566e-02
  272     272.000s     7.691e-01     7.534e-01   -1.572e-02
  273     273.000s     7.682e-01     7.525e-01   -1.578e-02
  274     274.000s     7.674e-01     7.515e-01   -1.584e-02
  275     275.000s     7.665e-01     7.506e-01   -1.589e-02
  276     276.000s     7.656e-01     7.497e-01   -1.595e-02
  277     277.000s     7.648e-01     7.488e-01   -1.600e-02
  278     278.000s     7.639e-01     7.478e-01   -1.605e-02
  279     279.000s     7.630e-01     7.469e-01   -1.610e-02
  280     280.000s     7.621e-01     7.460e-01   -1.615e-02
  281     281.000s     7.613e-01     7.451e-01   -1.619e-02
  282     282.000s     7.604e-01     7.441e-01   -1.624e-02
  283     283.000s     7.595e-01     7.432e-01   -1.628e-02
  284     284.000s     7.586e-01     7.423e-01   -1.633e-02
  285     285.000s     7.578e-01     7.414e-01   -1.637e-02
  286     286.000s     7.569e-01     7.405e-01   -1.641e-02
  287     287.000s     7.560e-01     7.396e-01   -1.645e-02
  288     288.000s     7.552e-01     7.387e-01   -1.650e-02
  289     289.000s     7.543e-01     7.377e-01   -1.654e-02
  290     290.000s     7.534e-01     7.368e-01   -1.658e-02
  291     291.000s     7.526e-01     7.359e-01   -1.662e-02
  292     292.000s     7.517e-01     7.350e-01   -1.666e-02
  293     293.000s     7.508e-01     7.341e-01   -1.671e-02
  294     294.000s     7.500e-01     7.332e-01   -1.675e-02
  295     295.000s     7.491e-01     7.323e-01   -1.679e-02
  296     296.000s     7.482e-01     7.314e-01   -1.683e-02
  297     297.000s     7.474e-01     7.305e-01   -1.687e-02
  298     298.000s     7.465e-01     7.296e-01   -1.691e-02
  299     299.000s     7.457e-01     7.287e-01   -1.696e-02
  300     300.000s     7.448e-01     7.278e-01   -1.700e-02
  301     301.000s     7.439e-01     7.269e-01   -1.704e-02
  302     302.000s     7.431e-01     7.260e-01   -1.708e-02
  303     303.000s     7.422e-01     7.251e-01   -1.711e-02
  304     304.000s     7.414e-01     7.242e-01   -1.715e-02
  305     305.000s     7.405e-01     7.233e-01   -1.719e-02
  306     306.000s     7.397e-01     7.224e-01   -1.723e-02
  307     307.000s     7.388e-01     7.215e-01   -1.726e-02
  308     308.000s     7.379e-01     7.206e-01   -1.730e-02
  309     309.000s     7.371e-01     7.198e-01   -1.733e-02
  310     310.000s     7.362e-01     7.189e-01   -1.737e-02
  311     311.000s     7.354e-01     7.180e-01   -1.740e-02
  312     312.000s     7.345e-01     7.171e-01   -1.744e-02
  313     313.000s     7.337e-01     7.162e-01   -1.747e-02
  314     314.000s     7.328e-01     7.153e-01   -1.750e-02
  315     315.000s     7.320e-01     7.145e-01   -1.753e-02
  316     316.000s     7.311e-01     7.136e-01   -1.757e-02
  317     317.000s     7.303e-01     7.127e-01   -1.760e-02
  318     318.000s     7.294e-01     7.118e-01   -1.763e-02
  319     319.000s     7.286e-01     7.109e-01   -1.767e-02
  320     320.000s     7.278e-01     7.101e-01   -1.770e-02
  321     321.000s     7.269e-01     7.092e-01   -1.774e-02
  322     322.000s     7.261e-01     7.083e-01   -1.777e-02
  323     323.000s     7.252e-01     7.074e-01   -1.781e-02
  324     324.000s     7.244e-01     7.066e-01   -1.784e-02
  325     325.000s     7.236e-01     7.057e-01   -1.788e-02
  326     326.000s     7.227e-01     7.048e-01   -1.792e-02
  327     327.000s     7.219e-01     7.039e-01   -1.796e-02
  328     328.000s     7.211e-01     7.031e-01   -1.800e-02
  329     329.000s     7.203e-01     7.022e-01   -1.805e-02
  330     330.000s     7.194e-01     7.013e-01   -1.809e-02
  331     331.000s     7.186e-01     7.005e-01   -1.814e-02
  332     332.000s     7.178e-01     6.996e-01   -1.819e-02
  333     333.000s     7.170e-01     6.988e-01   -1.824e-02
  334     334.000s     7.162e-01     6.979e-01   -1.829e-02
  335     335.000s     7.154e-01     6.970e-01   -1.834e-02
  336     336.000s     7.146e-01     6.962e-01   -1.840e-02
  337     337.000s     7.138e-01     6.953e-01   -1.846e-02
  338     338.000s     7.130e-01     6.945e-01   -1.852e-02
  339     339.000s     7.122e-01     6.936e-01   -1.858e-02
  340     340.000s     7.114e-01     6.927e-01   -1.865e-02
  341     341.000s     7.106e-01     6.919e-01   -1.871e-02
  342     342.000s     7.098e-01     6.910e-01   -1.878e-02
  343     343.000s     7.090e-01     6.902e-01   -1.885e-02
  344     344.000s     7.083e-01     6.893e-01   -1.893e-02
  345     345.000s     7.075e-01     6.885e-01   -1.900e-02
  346     346.000s     7.067e-01     6.876e-01   -1.908e-02
  347     347.000s     7.060e-01     6.868e-01   -1.916e-02
  348     348.000s     7.052e-01     6.859e-01   -1.925e-02
  349     349.000s     7.044e-01     6.851e-01   -1.933e-02
  350     350.000s     7.037e-01     6.842e-01   -1.941e-02
  351     351.000s     7.029e-01     6.834e-01   -1.950e-02
  352     352.000s     7.022e-01     6.826e-01   -1.959e-02
  353     353.000s     7.014e-01     6.817e-01   -1.968e-02
  354     354.000s     7.006e-01     6.809e-01   -1.977e-02
  355     355.000s     6.999e-01     6.800e-01   -1.986e-02
  356     356.000s     6.992e-01     6.792e-01   -1.995e-02
  357     357.000s     6.984e-01     6.784e-01   -2.004e-02
  358     358.000s     6.977e-01     6.775e-01   -2.013e-02
  359     359.000s     6.969e-01     6.767e-01   -2.022e-02
  360     360.000s     6.962e-01     6.759e-01   -2.031e-02
  361     361.000s     6.954e-01     6.750e-01   -2.040e-02
  362     362.000s     6.947e-01     6.742e-01   -2.048e-02
  363     363.000s     6.939e-01     6.734e-01   -2.057e-02
  364     364.000s     6.932e-01     6.725e-01   -2.065e-02
  365     365.000s     6.924e-01     6.717e-01   -2.073e-02
  366     366.000s     6.917e-01     6.709e-01   -2.081e-02
  367     367.000s     6.909e-01     6.700e-01   -2.089e-02
  368     368.000s     6.902e-01     6.692e-01   -2.096e-02
  369     369.000s     6.894e-01     6.684e-01   -2.103e-02
  370     370.000s     6.887e-01     6.676e-01   -2.110e-02
  371     371.000s     6.879e-01     6.667e-01   -2.117e-02
  372     372.000s     6.872e-01     6.659e-01   -2.124e-02
  373     373.000s     6.864e-01     6.651e-01   -2.130e-02
  374     374.000s     6.856e-01     6.643e-01   -2.136e-02
  375     375.000s     6.849e-01     6.635e-01   -2.141e-02
  376     376.000s     6.841e-01     6.626e-01   -2.146e-02
  377     377.000s     6.833e-01     6.618e-01   -2.151e-02
  378     378.000s     6.826e-01     6.610e-01   -2.156e-02
  379     379.000s     6.818e-01     6.602e-01   -2.161e-02
  380     380.000s     6.810e-01     6.594e-01   -2.165e-02
  381     381.000s     6.803e-01     6.586e-01   -2.169e-02
  382     382.000s     6.795e-01     6.578e-01   -2.172e-02
  383     383.000s     6.787e-01     6.569e-01   -2.176e-02
  384     384.000s     6.779e-01     6.561e-01   -2.179e-02
  385     385.000s     6.771e-01     6.553e-01   -2.182e-02
  386     386.000s     6.764e-01     6.545e-01   -2.185e-02
  387     387.000s     6.756e-01     6.537e-01   -2.187e-02
  388     388.000s     6.748e-01     6.529e-01   -2.189e-02
  389     389.000s     6.740e-01     6.521e-01   -2.191e-02
  390     390.000s     6.732e-01     6.513e-01   -2.193e-02
  391     391.000s     6.724e-01     6.505e-01   -2.194e-02
  392     392.000s     6.716e-01     6.497e-01   -2.195e-02
  393     393.000s     6.708e-01     6.489e-01   -2.195e-02
  394     394.000s     6.700e-01     6.481e-01   -2.196e-02
  395     395.000s     6.692e-01     6.473e-01   -2.196e-02
  396     396.000s     6.684e-01     6.465e-01   -2.196e-02
  397     397.000s     6.676e-01     6.457e-01   -2.195e-02
  398     398.000s     6.668e-01     6.449e-01   -2.195e-02
  399     399.000s     6.660e-01     6.441e-01   -2.194e-02
  400     400.000s     6.652e-01     6.433e-01   -2.192e-02
  401     401.000s     6.644e-01     6.425e-01   -2.191e-02
  402     402.000s     6.636e-01     6.417e-01   -2.189e-02
  403     403.000s     6.628e-01     6.409e-01   -2.187e-02
  404     404.000s     6.620e-01     6.401e-01   -2.185e-02
  405     405.000s     6.612e-01     6.393e-01   -2.183e-02
  406     406.000s     6.604e-01     6.386e-01   -2.181e-02
  407     407.000s     6.596e-01     6.378e-01   -2.178e-02
  408     408.000s     6.587e-01     6.370e-01   -2.176e-02
  409     409.000s     6.579e-01     6.362e-01   -2.173e-02
  410     410.000s     6.571e-01     6.354e-01   -2.171e-02
  411     411.000s     6.563e-01     6.346e-01   -2.169e-02
  412     412.000s     6.555e-01     6.338e-01   -2.167e-02
  413     413.000s     6.547e-01     6.331e-01   -2.165e-02
  414     414.000s     6.539e-01     6.323e-01   -2.163e-02
  415     415.000s     6.531e-01     6.315e-01   -2.161e-02
  416     416.000s     6.523e-01     6.307e-01   -2.160e-02
  417     417.000s     6.515e-01     6.299e-01   -2.159e-02
  418     418.000s     6.507e-01     6.292e-01   -2.158e-02
  419     419.000s     6.500e-01     6.284e-01   -2.157e-02
  420     420.000s     6.492e-01     6.276e-01   -2.157e-02
  421     421.000s     6.484e-01     6.268e-01   -2.156e-02
  422     422.000s     6.476e-01     6.261e-01   -2.157e-02
  423     423.000s     6.469e-01     6.253e-01   -2.157e-02
  424     424.000s     6.461e-01     6.245e-01   -2.158e-02
  425     425.000s     6.453e-01     6.238e-01   -2.159e-02
  426     426.000s     6.446e-01     6.230e-01   -2.160e-02
  427     427.000s     6.438e-01     6.222e-01   -2.161e-02
  428     428.000s     6.431e-01     6.215e-01   -2.163e-02
  429     429.000s     6.423e-01     6.207e-01   -2.165e-02
  430     430.000s     6.416e-01     6.199e-01   -2.167e-02
  431     431.000s     6.409e-01     6.192e-01   -2.169e-02
  432     432.000s     6.401e-01     6.184e-01   -2.171e-02
  433     433.000s     6.394e-01     6.176e-01   -2.174e-02
  434     434.000s     6.386e-01     6.169e-01   -2.177e-02
  435     435.000s     6.379e-01     6.161e-01   -2.179e-02
  436     436.000s     6.372e-01     6.154e-01   -2.182e-02
  437     437.000s     6.364e-01     6.146e-01   -2.185e-02
  438     438.000s     6.357e-01     6.138e-01   -2.188e-02
  439     439.000s     6.350e-01     6.131e-01   -2.191e-02
  440     440.000s     6.343e-01     6.123e-01   -2.194e-02
  441     441.000s     6.335e-01     6.116e-01   -2.197e-02
  442     442.000s     6.328e-01     6.108e-01   -2.199e-02
  443     443.000s     6.321e-01     6.101e-01   -2.202e-02
  444     444.000s     6.314e-01     6.093e-01   -2.205e-02
  445     445.000s     6.306e-01     6.086e-01   -2.207e-02
  446     446.000s     6.299e-01     6.078e-01   -2.209e-02
  447     447.000s     6.292e-01     6.071e-01   -2.211e-02
  448     448.000s     6.284e-01     6.063e-01   -2.213e-02
  449     449.000s     6.277e-01     6.056e-01   -2.214e-02
  450     450.000s     6.270e-01     6.048e-01   -2.215e-02
  451     451.000s     6.262e-01     6.041e-01   -2.216e-02
  452     452.000s     6.255e-01     6.033e-01   -2.217e-02
  453     453.000s     6.247e-01     6.026e-01   -2.217e-02
  454     454.000s     6.240e-01     6.018e-01   -2.217e-02
  455     455.000s     6.233e-01     6.011e-01   -2.217e-02
  456     456.000s     6.225e-01     6.003e-01   -2.216e-02
  457     457.000s     6.218e-01     5.996e-01   -2.215e-02
  458     458.000s     6.210e-01     5.989e-01   -2.214e-02
  459     459.000s     6.203e-01     5.981e-01   -2.212e-02
  460     460.000s     6.195e-01     5.974e-01   -2.210e-02
  461     461.000s     6.187e-01     5.967e-01   -2.208e-02
  462     462.000s     6.180e-01     5.959e-01   -2.205e-02
  463     463.000s     6.172e-01     5.952e-01   -2.203e-02
  464     464.000s     6.164e-01     5.945e-01   -2.199e-02
  465     465.000s     6.157e-01     5.937e-01   -2.196e-02
  466     466.000s     6.149e-01     5.930e-01   -2.192e-02
  467     467.000s     6.141e-01     5.923e-01   -2.188e-02
  468     468.000s     6.134e-01     5.915e-01   -2.184e-02
  469     469.000s     6.126e-01     5.908e-01   -2.180e-02
  470     470.000s     6.118e-01     5.901e-01   -2.175e-02
  471     471.000s     6.110e-01     5.893e-01   -2.170e-02
  472     472.000s     6.103e-01     5.886e-01   -2.165e-02
  473     473.000s     6.095e-01     5.879e-01   -2.159e-02
  474     474.000s     6.087e-01     5.872e-01   -2.154e-02
  475     475.000s     6.079e-01     5.864e-01   -2.148e-02
  476     476.000s     6.071e-01     5.857e-01   -2.142e-02
  477     477.000s     6.063e-01     5.850e-01   -2.136e-02
  478     478.000s     6.056e-01     5.843e-01   -2.129e-02
  479     479.000s     6.048e-01     5.835e-01   -2.122e-02
  480     480.000s     6.040e-01     5.828e-01   -2.116e-02
  481     481.000s     6.032e-01     5.821e-01   -2.109e-02
  482     482.000s     6.024e-01     5.814e-01   -2.101e-02
  483     483.000s     6.016e-01     5.807e-01   -2.094e-02
  484     484.000s     6.008e-01     5.800e-01   -2.086e-02
  485     485.000s     6.000e-01     5.792e-01   -2.079e-02
  486     486.000s     5.992e-01     5.785e-01   -2.071e-02
  487     487.000s     5.984e-01     5.778e-01   -2.063e-02
  488     488.000s     5.977e-01     5.771e-01   -2.055e-02
  489     489.000s     5.969e-01     5.764e-01   -2.047e-02
  490     490.000s     5.961e-01     5.757e-01   -2.039e-02
  491     491.000s     5.953e-01     5.750e-01   -2.031e-02
  492     492.000s     5.945e-01     5.743e-01   -2.023e-02
