SIMFIT RESULTS
==============

Dataset : /opt/topspin3.5pl6/data/e3b/joachim/87Rb-CRN/2/pdata/992/ct1t2.txt

INTENSITY fit : Exponential decay (T2 or T1rho) : I[t]=I[0]*exp(-t/T)

1374 points for Peak 1

Converged after 10000 iterations!

Results     Comp. 1       Comp. 2    

I[0]  =   -8.414e+01     8.514e+01  
T     =     489.754s      493.437s  

RSS   =    4.874e-03
SD    =    1.883e-03

Point       Tau          Expt          Calc       Difference

    1       1.000s     1.000e+00     9.938e-01   -6.232e-03
    2       2.000s     9.992e-01     9.930e-01   -6.125e-03
    3       3.000s     9.983e-01     9.923e-01   -6.010e-03
    4       4.000s     9.974e-01     9.916e-01   -5.888e-03
    5       5.000s     9.966e-01     9.908e-01   -5.765e-03
    6       6.000s     9.957e-01     9.901e-01   -5.649e-03
    7       7.000s     9.949e-01     9.893e-01   -5.547e-03
    8       8.000s     9.941e-01     9.886e-01   -5.466e-03
    9       9.000s     9.933e-01     9.879e-01   -5.413e-03
   10      10.000s     9.925e-01     9.871e-01   -5.388e-03
   11      11.000s     9.918e-01     9.864e-01   -5.388e-03
   12      12.000s     9.910e-01     9.856e-01   -5.407e-03
   13      13.000s     9.903e-01     9.849e-01   -5.434e-03
   14      14.000s     9.896e-01     9.841e-01   -5.459e-03
   15      15.000s     9.889e-01     9.834e-01   -5.472e-03
   16      16.000s     9.881e-01     9.826e-01   -5.466e-03
   17      17.000s     9.873e-01     9.819e-01   -5.436e-03
   18      18.000s     9.865e-01     9.811e-01   -5.380e-03
   19      19.000s     9.857e-01     9.804e-01   -5.297e-03
   20      20.000s     9.848e-01     9.796e-01   -5.186e-03
   21      21.000s     9.839e-01     9.789e-01   -5.048e-03
   22      22.000s     9.830e-01     9.781e-01   -4.888e-03
   23      23.000s     9.821e-01     9.774e-01   -4.709e-03
   24      24.000s     9.811e-01     9.766e-01   -4.518e-03
   25      25.000s     9.802e-01     9.758e-01   -4.322e-03
   26      26.000s     9.792e-01     9.751e-01   -4.129e-03
   27      27.000s     9.783e-01     9.743e-01   -3.946e-03
   28      28.000s     9.773e-01     9.736e-01   -3.781e-03
   29      29.000s     9.764e-01     9.728e-01   -3.637e-03
   30      30.000s     9.755e-01     9.720e-01   -3.511e-03
   31      31.000s     9.747e-01     9.713e-01   -3.400e-03
   32      32.000s     9.738e-01     9.705e-01   -3.293e-03
   33      33.000s     9.729e-01     9.697e-01   -3.185e-03
   34      34.000s     9.720e-01     9.690e-01   -3.071e-03
   35      35.000s     9.712e-01     9.682e-01   -2.950e-03
   36      36.000s     9.703e-01     9.674e-01   -2.826e-03
   37      37.000s     9.694e-01     9.667e-01   -2.701e-03
   38      38.000s     9.685e-01     9.659e-01   -2.575e-03
   39      39.000s     9.676e-01     9.651e-01   -2.445e-03
   40      40.000s     9.667e-01     9.644e-01   -2.306e-03
   41      41.000s     9.657e-01     9.636e-01   -2.153e-03
   42      42.000s     9.648e-01     9.628e-01   -1.984e-03
   43      43.000s     9.638e-01     9.620e-01   -1.802e-03
   44      44.000s     9.629e-01     9.613e-01   -1.616e-03
   45      45.000s     9.619e-01     9.605e-01   -1.440e-03
   46      46.000s     9.610e-01     9.597e-01   -1.286e-03
   47      47.000s     9.601e-01     9.589e-01   -1.167e-03
   48      48.000s     9.592e-01     9.581e-01   -1.091e-03
   49      49.000s     9.584e-01     9.574e-01   -1.058e-03
   50      50.000s     9.577e-01     9.566e-01   -1.065e-03
   51      51.000s     9.569e-01     9.558e-01   -1.104e-03
   52      52.000s     9.562e-01     9.550e-01   -1.163e-03
   53      53.000s     9.555e-01     9.542e-01   -1.229e-03
   54      54.000s     9.547e-01     9.535e-01   -1.286e-03
   55      55.000s     9.540e-01     9.527e-01   -1.324e-03
   56      56.000s     9.532e-01     9.519e-01   -1.331e-03
   57      57.000s     9.524e-01     9.511e-01   -1.303e-03
   58      58.000s     9.516e-01     9.503e-01   -1.237e-03
   59      59.000s     9.507e-01     9.495e-01   -1.133e-03
   60      60.000s     9.497e-01     9.487e-01   -9.936e-04
   61      61.000s     9.488e-01     9.480e-01   -8.211e-04
   62      62.000s     9.478e-01     9.472e-01   -6.228e-04
   63      63.000s     9.468e-01     9.464e-01   -4.082e-04
   64      64.000s     9.458e-01     9.456e-01   -1.883e-04
   65      65.000s     9.448e-01     9.448e-01    2.706e-05
   66      66.000s     9.438e-01     9.440e-01    2.322e-04
   67      67.000s     9.428e-01     9.432e-01    4.263e-04
   68      68.000s     9.418e-01     9.424e-01    6.120e-04
   69      69.000s     9.408e-01     9.416e-01    7.935e-04
   70      70.000s     9.399e-01     9.408e-01    9.739e-04
   71      71.000s     9.389e-01     9.400e-01    1.153e-03
   72      72.000s     9.379e-01     9.392e-01    1.330e-03
   73      73.000s     9.369e-01     9.384e-01    1.499e-03
   74      74.000s     9.360e-01     9.376e-01    1.655e-03
   75      75.000s     9.351e-01     9.368e-01    1.792e-03
   76      76.000s     9.341e-01     9.360e-01    1.905e-03
   77      77.000s     9.333e-01     9.352e-01    1.993e-03
   78      78.000s     9.324e-01     9.344e-01    2.056e-03
   79      79.000s     9.315e-01     9.336e-01    2.096e-03
   80      80.000s     9.307e-01     9.328e-01    2.118e-03
   81      81.000s     9.299e-01     9.320e-01    2.126e-03
   82      82.000s     9.291e-01     9.312e-01    2.122e-03
   83      83.000s     9.283e-01     9.304e-01    2.103e-03
   84      84.000s     9.276e-01     9.296e-01    2.069e-03
   85      85.000s     9.268e-01     9.288e-01    2.020e-03
   86      86.000s     9.261e-01     9.280e-01    1.959e-03
   87      87.000s     9.253e-01     9.272e-01    1.889e-03
   88      88.000s     9.246e-01     9.264e-01    1.816e-03
   89      89.000s     9.239e-01     9.256e-01    1.743e-03
   90      90.000s     9.231e-01     9.248e-01    1.671e-03
   91      91.000s     9.224e-01     9.240e-01    1.602e-03
   92      92.000s     9.217e-01     9.232e-01    1.536e-03
   93      93.000s     9.209e-01     9.224e-01    1.474e-03
   94      94.000s     9.202e-01     9.216e-01    1.418e-03
   95      95.000s     9.194e-01     9.208e-01    1.372e-03
   96      96.000s     9.186e-01     9.199e-01    1.337e-03
   97      97.000s     9.178e-01     9.191e-01    1.317e-03
   98      98.000s     9.170e-01     9.183e-01    1.314e-03
   99      99.000s     9.162e-01     9.175e-01    1.326e-03
  100     100.000s     9.154e-01     9.167e-01    1.351e-03
  101     101.000s     9.145e-01     9.159e-01    1.383e-03
  102     102.000s     9.137e-01     9.151e-01    1.414e-03
  103     103.000s     9.128e-01     9.143e-01    1.437e-03
  104     104.000s     9.120e-01     9.135e-01    1.445e-03
  105     105.000s     9.112e-01     9.126e-01    1.432e-03
  106     106.000s     9.104e-01     9.118e-01    1.396e-03
  107     107.000s     9.097e-01     9.110e-01    1.334e-03
  108     108.000s     9.089e-01     9.102e-01    1.251e-03
  109     109.000s     9.082e-01     9.094e-01    1.155e-03
  110     110.000s     9.075e-01     9.086e-01    1.055e-03
  111     111.000s     9.068e-01     9.077e-01    9.607e-04
  112     112.000s     9.060e-01     9.069e-01    8.771e-04
  113     113.000s     9.053e-01     9.061e-01    8.069e-04
  114     114.000s     9.045e-01     9.053e-01    7.498e-04
  115     115.000s     9.038e-01     9.045e-01    7.051e-04
  116     116.000s     9.030e-01     9.037e-01    6.729e-04
  117     117.000s     9.022e-01     9.028e-01    6.538e-04
  118     118.000s     9.014e-01     9.020e-01    6.481e-04
  119     119.000s     9.005e-01     9.012e-01    6.556e-04
  120     120.000s     8.997e-01     9.004e-01    6.760e-04
  121     121.000s     8.988e-01     8.995e-01    7.100e-04
  122     122.000s     8.980e-01     8.987e-01    7.585e-04
  123     123.000s     8.971e-01     8.979e-01    8.222e-04
  124     124.000s     8.962e-01     8.971e-01    9.003e-04
  125     125.000s     8.953e-01     8.963e-01    9.906e-04
  126     126.000s     8.943e-01     8.954e-01    1.091e-03
  127     127.000s     8.934e-01     8.946e-01    1.198e-03
  128     128.000s     8.925e-01     8.938e-01    1.312e-03
  129     129.000s     8.915e-01     8.930e-01    1.431e-03
  130     130.000s     8.906e-01     8.921e-01    1.555e-03
  131     131.000s     8.896e-01     8.913e-01    1.683e-03
  132     132.000s     8.887e-01     8.905e-01    1.814e-03
  133     133.000s     8.877e-01     8.897e-01    1.949e-03
  134     134.000s     8.868e-01     8.888e-01    2.087e-03
  135     135.000s     8.858e-01     8.880e-01    2.229e-03
  136     136.000s     8.848e-01     8.872e-01    2.374e-03
  137     137.000s     8.838e-01     8.864e-01    2.521e-03
  138     138.000s     8.829e-01     8.855e-01    2.665e-03
  139     139.000s     8.819e-01     8.847e-01    2.797e-03
  140     140.000s     8.810e-01     8.839e-01    2.910e-03
  141     141.000s     8.801e-01     8.831e-01    2.997e-03
  142     142.000s     8.792e-01     8.822e-01    3.052e-03
  143     143.000s     8.783e-01     8.814e-01    3.075e-03
  144     144.000s     8.775e-01     8.806e-01    3.070e-03
  145     145.000s     8.767e-01     8.797e-01    3.042e-03
  146     146.000s     8.759e-01     8.789e-01    2.996e-03
  147     147.000s     8.751e-01     8.781e-01    2.938e-03
  148     148.000s     8.744e-01     8.773e-01    2.872e-03
  149     149.000s     8.736e-01     8.764e-01    2.800e-03
  150     150.000s     8.729e-01     8.756e-01    2.725e-03
  151     151.000s     8.721e-01     8.748e-01    2.649e-03
  152     152.000s     8.714e-01     8.739e-01    2.574e-03
  153     153.000s     8.706e-01     8.731e-01    2.500e-03
  154     154.000s     8.698e-01     8.723e-01    2.426e-03
  155     155.000s     8.691e-01     8.714e-01    2.348e-03
  156     156.000s     8.683e-01     8.706e-01    2.266e-03
  157     157.000s     8.676e-01     8.698e-01    2.176e-03
  158     158.000s     8.669e-01     8.689e-01    2.079e-03
  159     159.000s     8.661e-01     8.681e-01    1.976e-03
  160     160.000s     8.654e-01     8.673e-01    1.871e-03
  161     161.000s     8.647e-01     8.664e-01    1.769e-03
  162     162.000s     8.639e-01     8.656e-01    1.678e-03
  163     163.000s     8.632e-01     8.648e-01    1.605e-03
  164     164.000s     8.624e-01     8.639e-01    1.557e-03
  165     165.000s     8.616e-01     8.631e-01    1.534e-03
  166     166.000s     8.607e-01     8.623e-01    1.534e-03
  167     167.000s     8.599e-01     8.614e-01    1.551e-03
  168     168.000s     8.590e-01     8.606e-01    1.580e-03
  169     169.000s     8.582e-01     8.598e-01    1.614e-03
  170     170.000s     8.573e-01     8.589e-01    1.651e-03
  171     171.000s     8.564e-01     8.581e-01    1.690e-03
  172     172.000s     8.555e-01     8.573e-01    1.728e-03
  173     173.000s     8.547e-01     8.564e-01    1.765e-03
  174     174.000s     8.538e-01     8.556e-01    1.796e-03
  175     175.000s     8.529e-01     8.548e-01    1.817e-03
  176     176.000s     8.521e-01     8.539e-01    1.826e-03
  177     177.000s     8.513e-01     8.531e-01    1.822e-03
  178     178.000s     8.505e-01     8.523e-01    1.808e-03
  179     179.000s     8.496e-01     8.514e-01    1.786e-03
  180     180.000s     8.488e-01     8.506e-01    1.762e-03
  181     181.000s     8.480e-01     8.498e-01    1.741e-03
  182     182.000s     8.472e-01     8.489e-01    1.726e-03
  183     183.000s     8.464e-01     8.481e-01    1.720e-03
  184     184.000s     8.455e-01     8.472e-01    1.724e-03
  185     185.000s     8.447e-01     8.464e-01    1.739e-03
  186     186.000s     8.438e-01     8.456e-01    1.766e-03
  187     187.000s     8.429e-01     8.447e-01    1.808e-03
  188     188.000s     8.420e-01     8.439e-01    1.868e-03
  189     189.000s     8.411e-01     8.431e-01    1.950e-03
  190     190.000s     8.402e-01     8.422e-01    2.055e-03
  191     191.000s     8.392e-01     8.414e-01    2.186e-03
  192     192.000s     8.382e-01     8.406e-01    2.342e-03
  193     193.000s     8.372e-01     8.397e-01    2.520e-03
  194     194.000s     8.362e-01     8.389e-01    2.716e-03
  195     195.000s     8.351e-01     8.380e-01    2.921e-03
  196     196.000s     8.341e-01     8.372e-01    3.125e-03
  197     197.000s     8.330e-01     8.364e-01    3.320e-03
  198     198.000s     8.320e-01     8.355e-01    3.495e-03
  199     199.000s     8.310e-01     8.347e-01    3.643e-03
  200     200.000s     8.301e-01     8.339e-01    3.757e-03
  201     201.000s     8.292e-01     8.330e-01    3.832e-03
  202     202.000s     8.283e-01     8.322e-01    3.866e-03
  203     203.000s     8.275e-01     8.313e-01    3.859e-03
  204     204.000s     8.267e-01     8.305e-01    3.814e-03
  205     205.000s     8.259e-01     8.297e-01    3.737e-03
  206     206.000s     8.252e-01     8.288e-01    3.639e-03
  207     207.000s     8.245e-01     8.280e-01    3.530e-03
  208     208.000s     8.237e-01     8.272e-01    3.418e-03
  209     209.000s     8.230e-01     8.263e-01    3.307e-03
  210     210.000s     8.223e-01     8.255e-01    3.196e-03
  211     211.000s     8.216e-01     8.246e-01    3.080e-03
  212     212.000s     8.209e-01     8.238e-01    2.951e-03
  213     213.000s     8.202e-01     8.230e-01    2.805e-03
  214     214.000s     8.195e-01     8.221e-01    2.640e-03
  215     215.000s     8.188e-01     8.213e-01    2.459e-03
  216     216.000s     8.182e-01     8.205e-01    2.269e-03
  217     217.000s     8.175e-01     8.196e-01    2.077e-03
  218     218.000s     8.169e-01     8.188e-01    1.887e-03
  219     219.000s     8.162e-01     8.179e-01    1.705e-03
  220     220.000s     8.156e-01     8.171e-01    1.536e-03
  221     221.000s     8.149e-01     8.163e-01    1.387e-03
  222     222.000s     8.142e-01     8.154e-01    1.267e-03
  223     223.000s     8.134e-01     8.146e-01    1.182e-03
  224     224.000s     8.126e-01     8.138e-01    1.139e-03
  225     225.000s     8.118e-01     8.129e-01    1.140e-03
  226     226.000s     8.109e-01     8.121e-01    1.184e-03
  227     227.000s     8.100e-01     8.112e-01    1.263e-03
  228     228.000s     8.090e-01     8.104e-01    1.365e-03
  229     229.000s     8.081e-01     8.096e-01    1.477e-03
  230     230.000s     8.071e-01     8.087e-01    1.582e-03
  231     231.000s     8.062e-01     8.079e-01    1.667e-03
  232     232.000s     8.053e-01     8.071e-01    1.722e-03
  233     233.000s     8.045e-01     8.062e-01    1.744e-03
  234     234.000s     8.036e-01     8.054e-01    1.734e-03
  235     235.000s     8.028e-01     8.045e-01    1.696e-03
  236     236.000s     8.021e-01     8.037e-01    1.640e-03
  237     237.000s     8.013e-01     8.029e-01    1.572e-03
  238     238.000s     8.005e-01     8.020e-01    1.499e-03
  239     239.000s     7.998e-01     8.012e-01    1.422e-03
  240     240.000s     7.990e-01     8.004e-01    1.342e-03
  241     241.000s     7.983e-01     7.995e-01    1.256e-03
  242     242.000s     7.975e-01     7.987e-01    1.162e-03
  243     243.000s     7.968e-01     7.979e-01    1.060e-03
  244     244.000s     7.961e-01     7.970e-01    9.485e-04
  245     245.000s     7.954e-01     7.962e-01    8.247e-04
  246     246.000s     7.947e-01     7.953e-01    6.859e-04
  247     247.000s     7.940e-01     7.945e-01    5.299e-04
  248     248.000s     7.933e-01     7.937e-01    3.563e-04
  249     249.000s     7.927e-01     7.928e-01    1.687e-04
  250     250.000s     7.920e-01     7.920e-01   -2.611e-05
  251     251.000s     7.914e-01     7.912e-01   -2.180e-04
  252     252.000s     7.907e-01     7.903e-01   -3.958e-04
  253     253.000s     7.900e-01     7.895e-01   -5.487e-04
  254     254.000s     7.893e-01     7.887e-01   -6.680e-04
  255     255.000s     7.886e-01     7.878e-01   -7.477e-04
  256     256.000s     7.878e-01     7.870e-01   -7.858e-04
  257     257.000s     7.869e-01     7.862e-01   -7.837e-04
  258     258.000s     7.861e-01     7.853e-01   -7.455e-04
  259     259.000s     7.852e-01     7.845e-01   -6.760e-04
  260     260.000s     7.842e-01     7.837e-01   -5.800e-04
  261     261.000s     7.833e-01     7.828e-01   -4.619e-04
  262     262.000s     7.823e-01     7.820e-01   -3.259e-04
  263     263.000s     7.813e-01     7.812e-01   -1.774e-04
  264     264.000s     7.803e-01     7.803e-01   -2.183e-05
  265     265.000s     7.794e-01     7.795e-01    1.361e-04
  266     266.000s     7.784e-01     7.787e-01    2.941e-04
  267     267.000s     7.774e-01     7.778e-01    4.525e-04
  268     268.000s     7.764e-01     7.770e-01    6.141e-04
  269     269.000s     7.754e-01     7.762e-01    7.825e-04
  270     270.000s     7.744e-01     7.753e-01    9.613e-04
  271     271.000s     7.733e-01     7.745e-01    1.152e-03
  272     272.000s     7.723e-01     7.737e-01    1.355e-03
  273     273.000s     7.713e-01     7.728e-01    1.565e-03
  274     274.000s     7.702e-01     7.720e-01    1.775e-03
  275     275.000s     7.692e-01     7.712e-01    1.973e-03
  276     276.000s     7.682e-01     7.703e-01    2.148e-03
  277     277.000s     7.672e-01     7.695e-01    2.291e-03
  278     278.000s     7.663e-01     7.687e-01    2.396e-03
  279     279.000s     7.654e-01     7.678e-01    2.467e-03
  280     280.000s     7.645e-01     7.670e-01    2.509e-03
  281     281.000s     7.636e-01     7.662e-01    2.532e-03
  282     282.000s     7.628e-01     7.653e-01    2.543e-03
  283     283.000s     7.620e-01     7.645e-01    2.548e-03
  284     284.000s     7.611e-01     7.637e-01    2.548e-03
  285     285.000s     7.603e-01     7.629e-01    2.542e-03
  286     286.000s     7.595e-01     7.620e-01    2.527e-03
  287     287.000s     7.587e-01     7.612e-01    2.498e-03
  288     288.000s     7.579e-01     7.604e-01    2.450e-03
  289     289.000s     7.572e-01     7.595e-01    2.380e-03
  290     290.000s     7.564e-01     7.587e-01    2.288e-03
  291     291.000s     7.557e-01     7.579e-01    2.177e-03
  292     292.000s     7.550e-01     7.571e-01    2.050e-03
  293     293.000s     7.543e-01     7.562e-01    1.914e-03
  294     294.000s     7.536e-01     7.554e-01    1.773e-03
  295     295.000s     7.529e-01     7.546e-01    1.635e-03
  296     296.000s     7.522e-01     7.538e-01    1.504e-03
  297     297.000s     7.515e-01     7.529e-01    1.388e-03
  298     298.000s     7.508e-01     7.521e-01    1.293e-03
  299     299.000s     7.500e-01     7.513e-01    1.225e-03
  300     300.000s     7.493e-01     7.504e-01    1.185e-03
  301     301.000s     7.484e-01     7.496e-01    1.173e-03
  302     302.000s     7.476e-01     7.488e-01    1.187e-03
  303     303.000s     7.467e-01     7.480e-01    1.220e-03
  304     304.000s     7.459e-01     7.471e-01    1.270e-03
  305     305.000s     7.450e-01     7.463e-01    1.331e-03
  306     306.000s     7.441e-01     7.455e-01    1.399e-03
  307     307.000s     7.432e-01     7.447e-01    1.464e-03
  308     308.000s     7.423e-01     7.438e-01    1.517e-03
  309     309.000s     7.415e-01     7.430e-01    1.546e-03
  310     310.000s     7.407e-01     7.422e-01    1.543e-03
  311     311.000s     7.399e-01     7.414e-01    1.503e-03
  312     312.000s     7.391e-01     7.406e-01    1.427e-03
  313     313.000s     7.384e-01     7.397e-01    1.317e-03
  314     314.000s     7.377e-01     7.389e-01    1.183e-03
  315     315.000s     7.371e-01     7.381e-01    1.030e-03
  316     316.000s     7.364e-01     7.373e-01    8.680e-04
  317     317.000s     7.357e-01     7.364e-01    7.073e-04
  318     318.000s     7.351e-01     7.356e-01    5.593e-04
  319     319.000s     7.344e-01     7.348e-01    4.349e-04
  320     320.000s     7.336e-01     7.340e-01    3.424e-04
  321     321.000s     7.329e-01     7.332e-01    2.857e-04
  322     322.000s     7.321e-01     7.323e-01    2.643e-04
  323     323.000s     7.313e-01     7.315e-01    2.735e-04
  324     324.000s     7.304e-01     7.307e-01    3.061e-04
  325     325.000s     7.295e-01     7.299e-01    3.547e-04
  326     326.000s     7.287e-01     7.291e-01    4.134e-04
  327     327.000s     7.278e-01     7.282e-01    4.793e-04
  328     328.000s     7.269e-01     7.274e-01    5.534e-04
  329     329.000s     7.260e-01     7.266e-01    6.395e-04
  330     330.000s     7.251e-01     7.258e-01    7.438e-04
  331     331.000s     7.241e-01     7.250e-01    8.721e-04
  332     332.000s     7.231e-01     7.242e-01    1.027e-03
  333     333.000s     7.221e-01     7.233e-01    1.208e-03
  334     334.000s     7.211e-01     7.225e-01    1.410e-03
  335     335.000s     7.201e-01     7.217e-01    1.624e-03
  336     336.000s     7.191e-01     7.209e-01    1.842e-03
  337     337.000s     7.180e-01     7.201e-01    2.056e-03
  338     338.000s     7.170e-01     7.193e-01    2.261e-03
  339     339.000s     7.160e-01     7.185e-01    2.454e-03
  340     340.000s     7.150e-01     7.176e-01    2.636e-03
  341     341.000s     7.140e-01     7.168e-01    2.807e-03
  342     342.000s     7.130e-01     7.160e-01    2.968e-03
  343     343.000s     7.121e-01     7.152e-01    3.115e-03
  344     344.000s     7.111e-01     7.144e-01    3.247e-03
  345     345.000s     7.102e-01     7.136e-01    3.355e-03
  346     346.000s     7.093e-01     7.128e-01    3.433e-03
  347     347.000s     7.085e-01     7.120e-01    3.472e-03
  348     348.000s     7.077e-01     7.111e-01    3.464e-03
  349     349.000s     7.069e-01     7.103e-01    3.407e-03
  350     350.000s     7.062e-01     7.095e-01    3.302e-03
  351     351.000s     7.056e-01     7.087e-01    3.159e-03
  352     352.000s     7.049e-01     7.079e-01    2.989e-03
  353     353.000s     7.043e-01     7.071e-01    2.805e-03
  354     354.000s     7.037e-01     7.063e-01    2.616e-03
  355     355.000s     7.030e-01     7.055e-01    2.430e-03
  356     356.000s     7.024e-01     7.047e-01    2.251e-03
  357     357.000s     7.018e-01     7.039e-01    2.085e-03
  358     358.000s     7.011e-01     7.030e-01    1.931e-03
  359     359.000s     7.004e-01     7.022e-01    1.794e-03
  360     360.000s     6.998e-01     7.014e-01    1.674e-03
  361     361.000s     6.991e-01     7.006e-01    1.570e-03
  362     362.000s     6.983e-01     6.998e-01    1.479e-03
  363     363.000s     6.976e-01     6.990e-01    1.396e-03
  364     364.000s     6.969e-01     6.982e-01    1.316e-03
  365     365.000s     6.962e-01     6.974e-01    1.238e-03
  366     366.000s     6.954e-01     6.966e-01    1.161e-03
  367     367.000s     6.947e-01     6.958e-01    1.091e-03
  368     368.000s     6.940e-01     6.950e-01    1.029e-03
  369     369.000s     6.932e-01     6.942e-01    9.788e-04
  370     370.000s     6.924e-01     6.934e-01    9.397e-04
  371     371.000s     6.917e-01     6.926e-01    9.111e-04
  372     372.000s     6.909e-01     6.918e-01    8.929e-04
  373     373.000s     6.901e-01     6.910e-01    8.858e-04
  374     374.000s     6.893e-01     6.902e-01    8.907e-04
  375     375.000s     6.885e-01     6.894e-01    9.074e-04
  376     376.000s     6.876e-01     6.886e-01    9.324e-04
  377     377.000s     6.868e-01     6.878e-01    9.579e-04
  378     378.000s     6.860e-01     6.870e-01    9.728e-04
  379     379.000s     6.852e-01     6.862e-01    9.641e-04
  380     380.000s     6.845e-01     6.854e-01    9.206e-04
  381     381.000s     6.837e-01     6.846e-01    8.356e-04
  382     382.000s     6.831e-01     6.838e-01    7.084e-04
  383     383.000s     6.824e-01     6.830e-01    5.444e-04
  384     384.000s     6.818e-01     6.822e-01    3.545e-04
  385     385.000s     6.812e-01     6.814e-01    1.526e-04
  386     386.000s     6.806e-01     6.806e-01   -4.556e-05
  387     387.000s     6.800e-01     6.798e-01   -2.256e-04
  388     388.000s     6.794e-01     6.790e-01   -3.763e-04
  389     389.000s     6.787e-01     6.782e-01   -4.920e-04
  390     390.000s     6.780e-01     6.774e-01   -5.723e-04
  391     391.000s     6.772e-01     6.766e-01   -6.219e-04
  392     392.000s     6.765e-01     6.758e-01   -6.479e-04
  393     393.000s     6.757e-01     6.750e-01   -6.589e-04
  394     394.000s     6.749e-01     6.742e-01   -6.639e-04
  395     395.000s     6.741e-01     6.734e-01   -6.721e-04
  396     396.000s     6.733e-01     6.727e-01   -6.930e-04
  397     397.000s     6.726e-01     6.719e-01   -7.348e-04
  398     398.000s     6.719e-01     6.711e-01   -8.023e-04
  399     399.000s     6.712e-01     6.703e-01   -8.946e-04
  400     400.000s     6.705e-01     6.695e-01   -1.004e-03
  401     401.000s     6.698e-01     6.687e-01   -1.119e-03
  402     402.000s     6.691e-01     6.679e-01   -1.221e-03
  403     403.000s     6.684e-01     6.671e-01   -1.296e-03
  404     404.000s     6.677e-01     6.663e-01   -1.332e-03
  405     405.000s     6.669e-01     6.655e-01   -1.322e-03
  406     406.000s     6.660e-01     6.648e-01   -1.268e-03
  407     407.000s     6.652e-01     6.640e-01   -1.178e-03
  408     408.000s     6.642e-01     6.632e-01   -1.064e-03
  409     409.000s     6.633e-01     6.624e-01   -9.405e-04
  410     410.000s     6.624e-01     6.616e-01   -8.221e-04
  411     411.000s     6.615e-01     6.608e-01   -7.176e-04
  412     412.000s     6.607e-01     6.600e-01   -6.306e-04
  413     413.000s     6.598e-01     6.593e-01   -5.606e-04
  414     414.000s     6.590e-01     6.585e-01   -5.063e-04
  415     415.000s     6.582e-01     6.577e-01   -4.680e-04
  416     416.000s     6.574e-01     6.569e-01   -4.480e-04
  417     417.000s     6.566e-01     6.561e-01   -4.486e-04
  418     418.000s     6.558e-01     6.553e-01   -4.699e-04
  419     419.000s     6.551e-01     6.546e-01   -5.082e-04
  420     420.000s     6.543e-01     6.538e-01   -5.566e-04
  421     421.000s     6.536e-01     6.530e-01   -6.068e-04
  422     422.000s     6.529e-01     6.522e-01   -6.511e-04
  423     423.000s     6.521e-01     6.514e-01   -6.837e-04
  424     424.000s     6.514e-01     6.507e-01   -7.013e-04
  425     425.000s     6.506e-01     6.499e-01   -7.035e-04
  426     426.000s     6.498e-01     6.491e-01   -6.918e-04
  427     427.000s     6.490e-01     6.483e-01   -6.698e-04
  428     428.000s     6.482e-01     6.475e-01   -6.421e-04
  429     429.000s     6.474e-01     6.468e-01   -6.142e-04
  430     430.000s     6.466e-01     6.460e-01   -5.910e-04
  431     431.000s     6.458e-01     6.452e-01   -5.755e-04
  432     432.000s     6.450e-01     6.444e-01   -5.667e-04
  433     433.000s     6.442e-01     6.437e-01   -5.598e-04
  434     434.000s     6.434e-01     6.429e-01   -5.476e-04
  435     435.000s     6.426e-01     6.421e-01   -5.235e-04
  436     436.000s     6.418e-01     6.413e-01   -4.837e-04
  437     437.000s     6.410e-01     6.406e-01   -4.277e-04
  438     438.000s     6.402e-01     6.398e-01   -3.582e-04
  439     439.000s     6.393e-01     6.390e-01   -2.805e-04
  440     440.000s     6.385e-01     6.383e-01   -2.008e-04
  441     441.000s     6.376e-01     6.375e-01   -1.257e-04
  442     442.000s     6.368e-01     6.367e-01   -6.120e-05
  443     443.000s     6.360e-01     6.359e-01   -1.120e-05
  444     444.000s     6.352e-01     6.352e-01    2.307e-05
  445     445.000s     6.344e-01     6.344e-01    4.401e-05
  446     446.000s     6.336e-01     6.336e-01    5.762e-05
  447     447.000s     6.328e-01     6.329e-01    7.212e-05
  448     448.000s     6.320e-01     6.321e-01    9.554e-05
  449     449.000s     6.312e-01     6.313e-01    1.331e-04
  450     450.000s     6.304e-01     6.306e-01    1.853e-04
  451     451.000s     6.296e-01     6.298e-01    2.477e-04
  452     452.000s     6.287e-01     6.290e-01    3.120e-04
  453     453.000s     6.279e-01     6.283e-01    3.680e-04
  454     454.000s     6.271e-01     6.275e-01    4.062e-04
  455     455.000s     6.263e-01     6.267e-01    4.197e-04
  456     456.000s     6.256e-01     6.260e-01    4.058e-04
  457     457.000s     6.249e-01     6.252e-01    3.660e-04
  458     458.000s     6.242e-01     6.245e-01    3.053e-04
  459     459.000s     6.235e-01     6.237e-01    2.304e-04
  460     460.000s     6.228e-01     6.229e-01    1.485e-04
  461     461.000s     6.221e-01     6.222e-01    6.531e-05
  462     462.000s     6.214e-01     6.214e-01   -1.445e-05
  463     463.000s     6.207e-01     6.207e-01   -8.738e-05
  464     464.000s     6.200e-01     6.199e-01   -1.508e-04
  465     465.000s     6.193e-01     6.191e-01   -2.027e-04
  466     466.000s     6.186e-01     6.184e-01   -2.417e-04
  467     467.000s     6.179e-01     6.176e-01   -2.669e-04
  468     468.000s     6.171e-01     6.169e-01   -2.779e-04
  469     469.000s     6.164e-01     6.161e-01   -2.753e-04
  470     470.000s     6.156e-01     6.153e-01   -2.602e-04
  471     471.000s     6.148e-01     6.146e-01   -2.346e-04
  472     472.000s     6.140e-01     6.138e-01   -2.016e-04
  473     473.000s     6.132e-01     6.131e-01   -1.643e-04
  474     474.000s     6.125e-01     6.123e-01   -1.262e-04
  475     475.000s     6.117e-01     6.116e-01   -9.075e-05
  476     476.000s     6.109e-01     6.108e-01   -6.136e-05
  477     477.000s     6.101e-01     6.101e-01   -4.201e-05
  478     478.000s     6.094e-01     6.093e-01   -3.735e-05
  479     479.000s     6.086e-01     6.086e-01   -5.227e-05
  480     480.000s     6.079e-01     6.078e-01   -9.051e-05
  481     481.000s     6.072e-01     6.071e-01   -1.531e-04
  482     482.000s     6.066e-01     6.063e-01   -2.376e-04
  483     483.000s     6.059e-01     6.056e-01   -3.385e-04
  484     484.000s     6.053e-01     6.048e-01   -4.481e-04
  485     485.000s     6.046e-01     6.041e-01   -5.588e-04
  486     486.000s     6.040e-01     6.033e-01   -6.628e-04
  487     487.000s     6.033e-01     6.026e-01   -7.528e-04
  488     488.000s     6.027e-01     6.018e-01   -8.218e-04
  489     489.000s     6.019e-01     6.011e-01   -8.644e-04
  490     490.000s     6.012e-01     6.003e-01   -8.774e-04
  491     491.000s     6.005e-01     5.996e-01   -8.625e-04
  492     492.000s     5.997e-01     5.988e-01   -8.262e-04
