SIMFIT RESULTS
==============

Dataset : /opt/topspin3.5pl6/data/e3b/joachim/87Rb-CRN/6/pdata/991/ct1t2.txt

INTENSITY fit : Exponential decay (T2 or T1rho) : I[t]=I[0]*exp(-t/T)

549 points for Peak 1

Converged after 10000 iterations!

Results     Comp. 1       Comp. 2    

I[0]  =   -1.406e+02     1.416e+02  
T     =     194.259s      195.132s  

RSS   =    3.576e-02
SD    =    8.071e-03

Point       Tau          Expt          Calc       Difference

    1       1.000s     1.000e+00     9.909e-01   -9.067e-03
    2       2.000s     9.977e-01     9.891e-01   -8.640e-03
    3       3.000s     9.953e-01     9.872e-01   -8.063e-03
    4       4.000s     9.927e-01     9.853e-01   -7.359e-03
    5       5.000s     9.900e-01     9.835e-01   -6.572e-03
    6       6.000s     9.873e-01     9.816e-01   -5.757e-03
    7       7.000s     9.846e-01     9.797e-01   -4.961e-03
    8       8.000s     9.820e-01     9.778e-01   -4.215e-03
    9       9.000s     9.794e-01     9.759e-01   -3.531e-03
   10      10.000s     9.769e-01     9.740e-01   -2.906e-03
   11      11.000s     9.744e-01     9.720e-01   -2.327e-03
   12      12.000s     9.719e-01     9.701e-01   -1.784e-03
   13      13.000s     9.695e-01     9.682e-01   -1.273e-03
   14      14.000s     9.671e-01     9.663e-01   -7.977e-04
   15      15.000s     9.647e-01     9.643e-01   -3.731e-04
   16      16.000s     9.624e-01     9.624e-01   -2.696e-05
   17      17.000s     9.602e-01     9.604e-01    2.052e-04
   18      18.000s     9.582e-01     9.585e-01    2.914e-04
   19      19.000s     9.563e-01     9.565e-01    2.186e-04
   20      20.000s     9.545e-01     9.545e-01    6.289e-06
   21      21.000s     9.529e-01     9.526e-01   -2.895e-04
   22      22.000s     9.512e-01     9.506e-01   -5.864e-04
   23      23.000s     9.494e-01     9.486e-01   -7.951e-04
   24      24.000s     9.475e-01     9.466e-01   -8.426e-04
   25      25.000s     9.453e-01     9.446e-01   -6.889e-04
   26      26.000s     9.430e-01     9.426e-01   -3.342e-04
   27      27.000s     9.405e-01     9.406e-01    1.823e-04
   28      28.000s     9.379e-01     9.386e-01    7.914e-04
   29      29.000s     9.352e-01     9.366e-01    1.406e-03
   30      30.000s     9.327e-01     9.346e-01    1.940e-03
   31      31.000s     9.303e-01     9.326e-01    2.321e-03
   32      32.000s     9.281e-01     9.306e-01    2.510e-03
   33      33.000s     9.261e-01     9.286e-01    2.500e-03
   34      34.000s     9.242e-01     9.265e-01    2.313e-03
   35      35.000s     9.225e-01     9.245e-01    1.990e-03
   36      36.000s     9.209e-01     9.225e-01    1.573e-03
   37      37.000s     9.193e-01     9.204e-01    1.103e-03
   38      38.000s     9.178e-01     9.184e-01    6.046e-04
   39      39.000s     9.163e-01     9.164e-01    9.161e-05
   40      40.000s     9.147e-01     9.143e-01   -4.367e-04
   41      41.000s     9.132e-01     9.123e-01   -9.933e-04
   42      42.000s     9.118e-01     9.102e-01   -1.599e-03
   43      43.000s     9.104e-01     9.081e-01   -2.273e-03
   44      44.000s     9.091e-01     9.061e-01   -3.029e-03
   45      45.000s     9.079e-01     9.040e-01   -3.861e-03
   46      46.000s     9.067e-01     9.020e-01   -4.742e-03
   47      47.000s     9.055e-01     8.999e-01   -5.624e-03
   48      48.000s     9.043e-01     8.978e-01   -6.442e-03
   49      49.000s     9.029e-01     8.958e-01   -7.127e-03
   50      50.000s     9.013e-01     8.937e-01   -7.626e-03
   51      51.000s     8.995e-01     8.916e-01   -7.908e-03
   52      52.000s     8.975e-01     8.895e-01   -7.973e-03
   53      53.000s     8.953e-01     8.874e-01   -7.845e-03
   54      54.000s     8.929e-01     8.854e-01   -7.561e-03
   55      55.000s     8.904e-01     8.833e-01   -7.166e-03
   56      56.000s     8.879e-01     8.812e-01   -6.698e-03
   57      57.000s     8.853e-01     8.791e-01   -6.187e-03
   58      58.000s     8.827e-01     8.770e-01   -5.650e-03
   59      59.000s     8.800e-01     8.749e-01   -5.090e-03
   60      60.000s     8.773e-01     8.728e-01   -4.501e-03
   61      61.000s     8.746e-01     8.707e-01   -3.879e-03
   62      62.000s     8.719e-01     8.686e-01   -3.222e-03
   63      63.000s     8.691e-01     8.665e-01   -2.533e-03
   64      64.000s     8.663e-01     8.644e-01   -1.815e-03
   65      65.000s     8.634e-01     8.623e-01   -1.079e-03
   66      66.000s     8.606e-01     8.602e-01   -3.371e-04
   67      67.000s     8.577e-01     8.581e-01    3.882e-04
   68      68.000s     8.550e-01     8.560e-01    1.072e-03
   69      69.000s     8.522e-01     8.539e-01    1.696e-03
   70      70.000s     8.496e-01     8.518e-01    2.255e-03
   71      71.000s     8.470e-01     8.497e-01    2.762e-03
   72      72.000s     8.444e-01     8.476e-01    3.238e-03
   73      73.000s     8.418e-01     8.455e-01    3.698e-03
   74      74.000s     8.393e-01     8.434e-01    4.139e-03
   75      75.000s     8.367e-01     8.413e-01    4.537e-03
   76      76.000s     8.343e-01     8.392e-01    4.850e-03
   77      77.000s     8.320e-01     8.371e-01    5.042e-03
   78      78.000s     8.299e-01     8.350e-01    5.088e-03
   79      79.000s     8.279e-01     8.328e-01    4.992e-03
   80      80.000s     8.260e-01     8.307e-01    4.779e-03
   81      81.000s     8.241e-01     8.286e-01    4.492e-03
   82      82.000s     8.223e-01     8.265e-01    4.187e-03
   83      83.000s     8.205e-01     8.244e-01    3.922e-03
   84      84.000s     8.185e-01     8.223e-01    3.744e-03
   85      85.000s     8.165e-01     8.202e-01    3.677e-03
   86      86.000s     8.144e-01     8.181e-01    3.714e-03
   87      87.000s     8.121e-01     8.160e-01    3.818e-03
   88      88.000s     8.099e-01     8.138e-01    3.937e-03
   89      89.000s     8.077e-01     8.117e-01    4.020e-03
   90      90.000s     8.056e-01     8.096e-01    4.036e-03
   91      91.000s     8.035e-01     8.075e-01    3.984e-03
   92      92.000s     8.015e-01     8.054e-01    3.896e-03
   93      93.000s     7.995e-01     8.033e-01    3.818e-03
   94      94.000s     7.974e-01     8.012e-01    3.790e-03
   95      95.000s     7.952e-01     7.991e-01    3.827e-03
   96      96.000s     7.931e-01     7.970e-01    3.906e-03
   97      97.000s     7.909e-01     7.949e-01    3.978e-03
   98      98.000s     7.888e-01     7.928e-01    3.991e-03
   99      99.000s     7.867e-01     7.906e-01    3.910e-03
  100     100.000s     7.848e-01     7.885e-01    3.735e-03
  101     101.000s     7.829e-01     7.864e-01    3.500e-03
  102     102.000s     7.811e-01     7.843e-01    3.255e-03
  103     103.000s     7.792e-01     7.822e-01    3.047e-03
  104     104.000s     7.772e-01     7.801e-01    2.913e-03
  105     105.000s     7.752e-01     7.780e-01    2.862e-03
  106     106.000s     7.730e-01     7.759e-01    2.887e-03
  107     107.000s     7.709e-01     7.738e-01    2.959e-03
  108     108.000s     7.687e-01     7.717e-01    3.040e-03
  109     109.000s     7.665e-01     7.696e-01    3.090e-03
  110     110.000s     7.645e-01     7.675e-01    3.070e-03
  111     111.000s     7.625e-01     7.654e-01    2.947e-03
  112     112.000s     7.607e-01     7.634e-01    2.696e-03
  113     113.000s     7.590e-01     7.613e-01    2.309e-03
  114     114.000s     7.574e-01     7.592e-01    1.802e-03
  115     115.000s     7.559e-01     7.571e-01    1.226e-03
  116     116.000s     7.543e-01     7.550e-01    6.650e-04
  117     117.000s     7.527e-01     7.529e-01    2.207e-04
  118     118.000s     7.508e-01     7.508e-01   -7.750e-06
  119     119.000s     7.487e-01     7.488e-01    4.976e-05
  120     120.000s     7.463e-01     7.467e-01    4.187e-04
  121     121.000s     7.435e-01     7.446e-01    1.078e-03
  122     122.000s     7.405e-01     7.425e-01    1.969e-03
  123     123.000s     7.374e-01     7.404e-01    3.019e-03
  124     124.000s     7.342e-01     7.384e-01    4.151e-03
  125     125.000s     7.310e-01     7.363e-01    5.293e-03
  126     126.000s     7.278e-01     7.342e-01    6.381e-03
  127     127.000s     7.248e-01     7.322e-01    7.353e-03
  128     128.000s     7.219e-01     7.301e-01    8.149e-03
  129     129.000s     7.193e-01     7.280e-01    8.720e-03
  130     130.000s     7.169e-01     7.260e-01    9.040e-03
  131     131.000s     7.148e-01     7.239e-01    9.121e-03
  132     132.000s     7.128e-01     7.218e-01    9.003e-03
  133     133.000s     7.110e-01     7.198e-01    8.745e-03
  134     134.000s     7.093e-01     7.177e-01    8.401e-03
  135     135.000s     7.077e-01     7.157e-01    8.012e-03
  136     136.000s     7.060e-01     7.136e-01    7.609e-03
  137     137.000s     7.044e-01     7.116e-01    7.219e-03
  138     138.000s     7.027e-01     7.095e-01    6.880e-03
  139     139.000s     7.009e-01     7.075e-01    6.629e-03
  140     140.000s     6.990e-01     7.055e-01    6.496e-03
  141     141.000s     6.969e-01     7.034e-01    6.495e-03
  142     142.000s     6.948e-01     7.014e-01    6.619e-03
  143     143.000s     6.925e-01     6.994e-01    6.847e-03
  144     144.000s     6.902e-01     6.973e-01    7.149e-03
  145     145.000s     6.878e-01     6.953e-01    7.496e-03
  146     146.000s     6.854e-01     6.933e-01    7.855e-03
  147     147.000s     6.830e-01     6.912e-01    8.194e-03
  148     148.000s     6.807e-01     6.892e-01    8.480e-03
  149     149.000s     6.785e-01     6.872e-01    8.682e-03
  150     150.000s     6.764e-01     6.852e-01    8.777e-03
  151     151.000s     6.744e-01     6.832e-01    8.749e-03
  152     152.000s     6.726e-01     6.812e-01    8.589e-03
  153     153.000s     6.709e-01     6.792e-01    8.294e-03
  154     154.000s     6.693e-01     6.771e-01    7.865e-03
  155     155.000s     6.678e-01     6.751e-01    7.302e-03
  156     156.000s     6.665e-01     6.731e-01    6.603e-03
  157     157.000s     6.654e-01     6.712e-01    5.763e-03
  158     158.000s     6.644e-01     6.692e-01    4.780e-03
  159     159.000s     6.635e-01     6.672e-01    3.660e-03
  160     160.000s     6.627e-01     6.652e-01    2.427e-03
  161     161.000s     6.621e-01     6.632e-01    1.119e-03
  162     162.000s     6.614e-01     6.612e-01   -2.081e-04
  163     163.000s     6.607e-01     6.592e-01   -1.495e-03
  164     164.000s     6.599e-01     6.573e-01   -2.687e-03
  165     165.000s     6.590e-01     6.553e-01   -3.745e-03
  166     166.000s     6.580e-01     6.533e-01   -4.650e-03
  167     167.000s     6.567e-01     6.513e-01   -5.394e-03
  168     168.000s     6.554e-01     6.494e-01   -5.982e-03
  169     169.000s     6.538e-01     6.474e-01   -6.424e-03
  170     170.000s     6.522e-01     6.455e-01   -6.732e-03
  171     171.000s     6.504e-01     6.435e-01   -6.923e-03
  172     172.000s     6.486e-01     6.415e-01   -7.014e-03
  173     173.000s     6.466e-01     6.396e-01   -7.016e-03
  174     174.000s     6.446e-01     6.376e-01   -6.935e-03
  175     175.000s     6.425e-01     6.357e-01   -6.768e-03
  176     176.000s     6.403e-01     6.338e-01   -6.510e-03
  177     177.000s     6.380e-01     6.318e-01   -6.162e-03
  178     178.000s     6.356e-01     6.299e-01   -5.739e-03
  179     179.000s     6.332e-01     6.280e-01   -5.262e-03
  180     180.000s     6.308e-01     6.260e-01   -4.758e-03
  181     181.000s     6.284e-01     6.241e-01   -4.251e-03
  182     182.000s     6.259e-01     6.222e-01   -3.752e-03
  183     183.000s     6.235e-01     6.203e-01   -3.264e-03
  184     184.000s     6.211e-01     6.184e-01   -2.787e-03
  185     185.000s     6.188e-01     6.164e-01   -2.320e-03
  186     186.000s     6.164e-01     6.145e-01   -1.870e-03
  187     187.000s     6.141e-01     6.126e-01   -1.446e-03
  188     188.000s     6.118e-01     6.107e-01   -1.057e-03
  189     189.000s     6.096e-01     6.088e-01   -7.136e-04
  190     190.000s     6.074e-01     6.069e-01   -4.227e-04
  191     191.000s     6.052e-01     6.051e-01   -1.917e-04
  192     192.000s     6.032e-01     6.032e-01   -2.548e-05
  193     193.000s     6.012e-01     6.013e-01    7.720e-05
  194     194.000s     5.993e-01     5.994e-01    1.288e-04
  195     195.000s     5.974e-01     5.975e-01    1.560e-04
  196     196.000s     5.955e-01     5.957e-01    1.975e-04
  197     197.000s     5.935e-01     5.938e-01    2.986e-04
  198     198.000s     5.914e-01     5.919e-01    5.006e-04
  199     199.000s     5.892e-01     5.901e-01    8.284e-04
  200     200.000s     5.869e-01     5.882e-01    1.280e-03
  201     201.000s     5.845e-01     5.863e-01    1.828e-03
  202     202.000s     5.821e-01     5.845e-01    2.429e-03
  203     203.000s     5.796e-01     5.826e-01    3.045e-03
  204     204.000s     5.771e-01     5.808e-01    3.669e-03
  205     205.000s     5.746e-01     5.790e-01    4.321e-03
  206     206.000s     5.721e-01     5.771e-01    5.047e-03
  207     207.000s     5.694e-01     5.753e-01    5.890e-03
  208     208.000s     5.666e-01     5.735e-01    6.876e-03
  209     209.000s     5.636e-01     5.716e-01    7.999e-03
  210     210.000s     5.606e-01     5.698e-01    9.229e-03
  211     211.000s     5.575e-01     5.680e-01    1.052e-02
  212     212.000s     5.544e-01     5.662e-01    1.181e-02
  213     213.000s     5.513e-01     5.644e-01    1.306e-02
  214     214.000s     5.484e-01     5.626e-01    1.419e-02
  215     215.000s     5.456e-01     5.607e-01    1.518e-02
  216     216.000s     5.430e-01     5.589e-01    1.599e-02
  217     217.000s     5.406e-01     5.572e-01    1.660e-02
  218     218.000s     5.384e-01     5.554e-01    1.700e-02
  219     219.000s     5.364e-01     5.536e-01    1.721e-02
  220     220.000s     5.346e-01     5.518e-01    1.723e-02
  221     221.000s     5.329e-01     5.500e-01    1.710e-02
  222     222.000s     5.314e-01     5.482e-01    1.684e-02
  223     223.000s     5.299e-01     5.464e-01    1.652e-02
  224     224.000s     5.285e-01     5.447e-01    1.616e-02
  225     225.000s     5.271e-01     5.429e-01    1.581e-02
  226     226.000s     5.257e-01     5.411e-01    1.548e-02
  227     227.000s     5.242e-01     5.394e-01    1.519e-02
  228     228.000s     5.227e-01     5.376e-01    1.491e-02
  229     229.000s     5.213e-01     5.359e-01    1.462e-02
  230     230.000s     5.198e-01     5.341e-01    1.432e-02
  231     231.000s     5.184e-01     5.324e-01    1.400e-02
  232     232.000s     5.170e-01     5.307e-01    1.365e-02
  233     233.000s     5.156e-01     5.289e-01    1.329e-02
  234     234.000s     5.143e-01     5.272e-01    1.288e-02
  235     235.000s     5.130e-01     5.255e-01    1.242e-02
  236     236.000s     5.119e-01     5.237e-01    1.187e-02
  237     237.000s     5.108e-01     5.220e-01    1.120e-02
  238     238.000s     5.099e-01     5.203e-01    1.040e-02
  239     239.000s     5.091e-01     5.186e-01    9.486e-03
  240     240.000s     5.084e-01     5.169e-01    8.461e-03
  241     241.000s     5.078e-01     5.152e-01    7.342e-03
  242     242.000s     5.073e-01     5.135e-01    6.147e-03
  243     243.000s     5.069e-01     5.118e-01    4.898e-03
  244     244.000s     5.064e-01     5.101e-01    3.630e-03
  245     245.000s     5.060e-01     5.084e-01    2.383e-03
  246     246.000s     5.055e-01     5.067e-01    1.196e-03
  247     247.000s     5.049e-01     5.050e-01    9.690e-05
  248     248.000s     5.042e-01     5.033e-01   -9.057e-04
  249     249.000s     5.035e-01     5.017e-01   -1.824e-03
  250     250.000s     5.027e-01     5.000e-01   -2.681e-03
  251     251.000s     5.018e-01     4.983e-01   -3.494e-03
  252     252.000s     5.009e-01     4.967e-01   -4.261e-03
  253     253.000s     5.000e-01     4.950e-01   -4.953e-03
  254     254.000s     4.989e-01     4.934e-01   -5.528e-03
  255     255.000s     4.977e-01     4.917e-01   -5.952e-03
  256     256.000s     4.963e-01     4.901e-01   -6.217e-03
  257     257.000s     4.948e-01     4.884e-01   -6.344e-03
  258     258.000s     4.932e-01     4.868e-01   -6.371e-03
  259     259.000s     4.915e-01     4.851e-01   -6.338e-03
  260     260.000s     4.898e-01     4.835e-01   -6.274e-03
  261     261.000s     4.881e-01     4.819e-01   -6.196e-03
  262     262.000s     4.864e-01     4.803e-01   -6.116e-03
  263     263.000s     4.847e-01     4.787e-01   -6.053e-03
  264     264.000s     4.831e-01     4.770e-01   -6.034e-03
  265     265.000s     4.815e-01     4.754e-01   -6.088e-03
  266     266.000s     4.801e-01     4.738e-01   -6.237e-03
  267     267.000s     4.787e-01     4.722e-01   -6.488e-03
  268     268.000s     4.774e-01     4.706e-01   -6.827e-03
  269     269.000s     4.763e-01     4.690e-01   -7.228e-03
  270     270.000s     4.751e-01     4.674e-01   -7.659e-03
  271     271.000s     4.739e-01     4.658e-01   -8.092e-03
  272     272.000s     4.728e-01     4.643e-01   -8.516e-03
  273     273.000s     4.716e-01     4.627e-01   -8.935e-03
  274     274.000s     4.705e-01     4.611e-01   -9.366e-03
  275     275.000s     4.694e-01     4.595e-01   -9.836e-03
  276     276.000s     4.683e-01     4.580e-01   -1.037e-02
  277     277.000s     4.674e-01     4.564e-01   -1.098e-02
  278     278.000s     4.665e-01     4.549e-01   -1.166e-02
  279     279.000s     4.657e-01     4.533e-01   -1.240e-02
  280     280.000s     4.649e-01     4.517e-01   -1.317e-02
  281     281.000s     4.641e-01     4.502e-01   -1.393e-02
  282     282.000s     4.633e-01     4.487e-01   -1.464e-02
  283     283.000s     4.624e-01     4.471e-01   -1.527e-02
  284     284.000s     4.614e-01     4.456e-01   -1.578e-02
  285     285.000s     4.602e-01     4.441e-01   -1.616e-02
  286     286.000s     4.589e-01     4.425e-01   -1.641e-02
  287     287.000s     4.575e-01     4.410e-01   -1.654e-02
  288     288.000s     4.561e-01     4.395e-01   -1.658e-02
  289     289.000s     4.546e-01     4.380e-01   -1.659e-02
  290     290.000s     4.531e-01     4.365e-01   -1.662e-02
  291     291.000s     4.517e-01     4.350e-01   -1.671e-02
  292     292.000s     4.503e-01     4.335e-01   -1.688e-02
  293     293.000s     4.491e-01     4.320e-01   -1.712e-02
  294     294.000s     4.479e-01     4.305e-01   -1.740e-02
  295     295.000s     4.467e-01     4.290e-01   -1.768e-02
  296     296.000s     4.454e-01     4.275e-01   -1.790e-02
  297     297.000s     4.440e-01     4.260e-01   -1.801e-02
  298     298.000s     4.425e-01     4.245e-01   -1.798e-02
  299     299.000s     4.409e-01     4.230e-01   -1.783e-02
  300     300.000s     4.391e-01     4.216e-01   -1.755e-02
  301     301.000s     4.373e-01     4.201e-01   -1.717e-02
  302     302.000s     4.353e-01     4.186e-01   -1.667e-02
  303     303.000s     4.333e-01     4.172e-01   -1.608e-02
  304     304.000s     4.311e-01     4.157e-01   -1.538e-02
  305     305.000s     4.289e-01     4.143e-01   -1.459e-02
  306     306.000s     4.266e-01     4.128e-01   -1.374e-02
  307     307.000s     4.243e-01     4.114e-01   -1.289e-02
  308     308.000s     4.221e-01     4.100e-01   -1.212e-02
  309     309.000s     4.200e-01     4.085e-01   -1.149e-02
  310     310.000s     4.181e-01     4.071e-01   -1.106e-02
  311     311.000s     4.165e-01     4.057e-01   -1.083e-02
  312     312.000s     4.150e-01     4.042e-01   -1.077e-02
  313     313.000s     4.136e-01     4.028e-01   -1.081e-02
  314     314.000s     4.123e-01     4.014e-01   -1.087e-02
  315     315.000s     4.109e-01     4.000e-01   -1.087e-02
  316     316.000s     4.093e-01     3.986e-01   -1.077e-02
  317     317.000s     4.077e-01     3.972e-01   -1.052e-02
  318     318.000s     4.059e-01     3.958e-01   -1.015e-02
  319     319.000s     4.041e-01     3.944e-01   -9.722e-03
  320     320.000s     4.023e-01     3.930e-01   -9.304e-03
  321     321.000s     4.006e-01     3.916e-01   -8.976e-03
  322     322.000s     3.990e-01     3.902e-01   -8.793e-03
  323     323.000s     3.976e-01     3.888e-01   -8.771e-03
  324     324.000s     3.964e-01     3.875e-01   -8.897e-03
  325     325.000s     3.952e-01     3.861e-01   -9.139e-03
  326     326.000s     3.942e-01     3.847e-01   -9.468e-03
  327     327.000s     3.932e-01     3.834e-01   -9.865e-03
  328     328.000s     3.923e-01     3.820e-01   -1.032e-02
  329     329.000s     3.915e-01     3.806e-01   -1.082e-02
  330     330.000s     3.906e-01     3.793e-01   -1.134e-02
  331     331.000s     3.898e-01     3.779e-01   -1.186e-02
  332     332.000s     3.889e-01     3.766e-01   -1.235e-02
  333     333.000s     3.880e-01     3.752e-01   -1.278e-02
  334     334.000s     3.870e-01     3.739e-01   -1.313e-02
  335     335.000s     3.860e-01     3.726e-01   -1.337e-02
  336     336.000s     3.848e-01     3.712e-01   -1.353e-02
  337     337.000s     3.835e-01     3.699e-01   -1.359e-02
  338     338.000s     3.822e-01     3.686e-01   -1.357e-02
  339     339.000s     3.807e-01     3.673e-01   -1.347e-02
  340     340.000s     3.793e-01     3.660e-01   -1.331e-02
  341     341.000s     3.777e-01     3.647e-01   -1.308e-02
  342     342.000s     3.762e-01     3.633e-01   -1.281e-02
  343     343.000s     3.745e-01     3.620e-01   -1.249e-02
  344     344.000s     3.729e-01     3.607e-01   -1.215e-02
  345     345.000s     3.712e-01     3.594e-01   -1.178e-02
  346     346.000s     3.696e-01     3.582e-01   -1.141e-02
  347     347.000s     3.679e-01     3.569e-01   -1.104e-02
  348     348.000s     3.663e-01     3.556e-01   -1.071e-02
  349     349.000s     3.647e-01     3.543e-01   -1.044e-02
  350     350.000s     3.633e-01     3.530e-01   -1.026e-02
  351     351.000s     3.619e-01     3.518e-01   -1.018e-02
  352     352.000s     3.607e-01     3.505e-01   -1.021e-02
  353     353.000s     3.596e-01     3.492e-01   -1.033e-02
  354     354.000s     3.585e-01     3.480e-01   -1.053e-02
  355     355.000s     3.575e-01     3.467e-01   -1.077e-02
  356     356.000s     3.565e-01     3.455e-01   -1.100e-02
  357     357.000s     3.554e-01     3.442e-01   -1.117e-02
  358     358.000s     3.542e-01     3.430e-01   -1.122e-02
  359     359.000s     3.528e-01     3.417e-01   -1.108e-02
  360     360.000s     3.512e-01     3.405e-01   -1.071e-02
  361     361.000s     3.493e-01     3.392e-01   -1.011e-02
  362     362.000s     3.473e-01     3.380e-01   -9.303e-03
  363     363.000s     3.451e-01     3.368e-01   -8.349e-03
  364     364.000s     3.429e-01     3.356e-01   -7.323e-03
  365     365.000s     3.406e-01     3.343e-01   -6.301e-03
  366     366.000s     3.385e-01     3.331e-01   -5.342e-03
  367     367.000s     3.364e-01     3.319e-01   -4.479e-03
  368     368.000s     3.344e-01     3.307e-01   -3.716e-03
  369     369.000s     3.325e-01     3.295e-01   -3.033e-03
  370     370.000s     3.307e-01     3.283e-01   -2.389e-03
  371     371.000s     3.288e-01     3.271e-01   -1.733e-03
  372     372.000s     3.269e-01     3.259e-01   -1.020e-03
  373     373.000s     3.249e-01     3.247e-01   -2.158e-04
  374     374.000s     3.228e-01     3.235e-01    6.876e-04
  375     375.000s     3.207e-01     3.223e-01    1.677e-03
  376     376.000s     3.184e-01     3.212e-01    2.720e-03
  377     377.000s     3.162e-01     3.200e-01    3.773e-03
  378     378.000s     3.140e-01     3.188e-01    4.785e-03
  379     379.000s     3.119e-01     3.176e-01    5.701e-03
  380     380.000s     3.100e-01     3.165e-01    6.472e-03
  381     381.000s     3.083e-01     3.153e-01    7.050e-03
  382     382.000s     3.068e-01     3.141e-01    7.398e-03
  383     383.000s     3.055e-01     3.130e-01    7.489e-03
  384     384.000s     3.045e-01     3.118e-01    7.306e-03
  385     385.000s     3.038e-01     3.107e-01    6.847e-03
  386     386.000s     3.034e-01     3.096e-01    6.127e-03
  387     387.000s     3.032e-01     3.084e-01    5.171e-03
  388     388.000s     3.033e-01     3.073e-01    4.013e-03
  389     389.000s     3.034e-01     3.061e-01    2.691e-03
  390     390.000s     3.038e-01     3.050e-01    1.245e-03
  391     391.000s     3.042e-01     3.039e-01   -2.840e-04
  392     392.000s     3.046e-01     3.028e-01   -1.847e-03
  393     393.000s     3.050e-01     3.016e-01   -3.395e-03
  394     394.000s     3.054e-01     3.005e-01   -4.883e-03
  395     395.000s     3.057e-01     2.994e-01   -6.268e-03
  396     396.000s     3.058e-01     2.983e-01   -7.508e-03
  397     397.000s     3.058e-01     2.972e-01   -8.554e-03
  398     398.000s     3.055e-01     2.961e-01   -9.357e-03
  399     399.000s     3.049e-01     2.950e-01   -9.865e-03
  400     400.000s     3.040e-01     2.939e-01   -1.005e-02
  401     401.000s     3.027e-01     2.928e-01   -9.900e-03
  402     402.000s     3.012e-01     2.917e-01   -9.459e-03
  403     403.000s     2.994e-01     2.906e-01   -8.783e-03
  404     404.000s     2.975e-01     2.896e-01   -7.940e-03
  405     405.000s     2.955e-01     2.885e-01   -6.987e-03
  406     406.000s     2.934e-01     2.874e-01   -5.958e-03
  407     407.000s     2.912e-01     2.863e-01   -4.872e-03
  408     408.000s     2.890e-01     2.853e-01   -3.743e-03
  409     409.000s     2.868e-01     2.842e-01   -2.586e-03
  410     410.000s     2.846e-01     2.832e-01   -1.423e-03
  411     411.000s     2.824e-01     2.821e-01   -2.768e-04
  412     412.000s     2.802e-01     2.810e-01    8.342e-04
  413     413.000s     2.781e-01     2.800e-01    1.894e-03
  414     414.000s     2.761e-01     2.789e-01    2.885e-03
  415     415.000s     2.741e-01     2.779e-01    3.779e-03
  416     416.000s     2.723e-01     2.769e-01    4.539e-03
  417     417.000s     2.707e-01     2.758e-01    5.124e-03
  418     418.000s     2.693e-01     2.748e-01    5.498e-03
  419     419.000s     2.681e-01     2.738e-01    5.642e-03
  420     420.000s     2.672e-01     2.727e-01    5.559e-03
  421     421.000s     2.664e-01     2.717e-01    5.274e-03
  422     422.000s     2.659e-01     2.707e-01    4.827e-03
  423     423.000s     2.654e-01     2.697e-01    4.269e-03
  424     424.000s     2.650e-01     2.687e-01    3.654e-03
  425     425.000s     2.646e-01     2.677e-01    3.036e-03
  426     426.000s     2.642e-01     2.666e-01    2.463e-03
  427     427.000s     2.637e-01     2.656e-01    1.969e-03
  428     428.000s     2.631e-01     2.646e-01    1.573e-03
  429     429.000s     2.624e-01     2.636e-01    1.284e-03
  430     430.000s     2.615e-01     2.627e-01    1.107e-03
  431     431.000s     2.606e-01     2.617e-01    1.049e-03
  432     432.000s     2.596e-01     2.607e-01    1.120e-03
  433     433.000s     2.584e-01     2.597e-01    1.338e-03
  434     434.000s     2.570e-01     2.587e-01    1.712e-03
  435     435.000s     2.555e-01     2.577e-01    2.242e-03
  436     436.000s     2.538e-01     2.568e-01    2.911e-03
  437     437.000s     2.521e-01     2.558e-01    3.683e-03
  438     438.000s     2.503e-01     2.548e-01    4.509e-03
  439     439.000s     2.485e-01     2.539e-01    5.334e-03
  440     440.000s     2.468e-01     2.529e-01    6.101e-03
  441     441.000s     2.452e-01     2.519e-01    6.764e-03
  442     442.000s     2.437e-01     2.510e-01    7.292e-03
  443     443.000s     2.424e-01     2.500e-01    7.677e-03
  444     444.000s     2.411e-01     2.491e-01    7.937e-03
  445     445.000s     2.400e-01     2.481e-01    8.103e-03
  446     446.000s     2.390e-01     2.472e-01    8.218e-03
  447     447.000s     2.379e-01     2.463e-01    8.321e-03
  448     448.000s     2.369e-01     2.453e-01    8.436e-03
  449     449.000s     2.358e-01     2.444e-01    8.560e-03
  450     450.000s     2.348e-01     2.435e-01    8.669e-03
  451     451.000s     2.338e-01     2.425e-01    8.724e-03
  452     452.000s     2.329e-01     2.416e-01    8.690e-03
  453     453.000s     2.321e-01     2.407e-01    8.551e-03
  454     454.000s     2.315e-01     2.398e-01    8.317e-03
  455     455.000s     2.308e-01     2.389e-01    8.018e-03
  456     456.000s     2.303e-01     2.379e-01    7.688e-03
  457     457.000s     2.297e-01     2.370e-01    7.356e-03
  458     458.000s     2.291e-01     2.361e-01    7.032e-03
  459     459.000s     2.285e-01     2.352e-01    6.714e-03
  460     460.000s     2.279e-01     2.343e-01    6.396e-03
  461     461.000s     2.274e-01     2.334e-01    6.076e-03
  462     462.000s     2.268e-01     2.325e-01    5.770e-03
  463     463.000s     2.261e-01     2.317e-01    5.504e-03
  464     464.000s     2.255e-01     2.308e-01    5.312e-03
  465     465.000s     2.247e-01     2.299e-01    5.226e-03
  466     466.000s     2.237e-01     2.290e-01    5.264e-03
  467     467.000s     2.227e-01     2.281e-01    5.427e-03
  468     468.000s     2.216e-01     2.272e-01    5.691e-03
  469     469.000s     2.204e-01     2.264e-01    6.010e-03
  470     470.000s     2.192e-01     2.255e-01    6.318e-03
  471     471.000s     2.181e-01     2.246e-01    6.545e-03
  472     472.000s     2.172e-01     2.238e-01    6.626e-03
  473     473.000s     2.164e-01     2.229e-01    6.514e-03
  474     474.000s     2.159e-01     2.221e-01    6.191e-03
  475     475.000s     2.155e-01     2.212e-01    5.675e-03
  476     476.000s     2.153e-01     2.204e-01    5.018e-03
  477     477.000s     2.152e-01     2.195e-01    4.296e-03
  478     478.000s     2.151e-01     2.187e-01    3.597e-03
  479     479.000s     2.148e-01     2.178e-01    2.998e-03
  480     480.000s     2.144e-01     2.170e-01    2.548e-03
  481     481.000s     2.139e-01     2.161e-01    2.261e-03
  482     482.000s     2.132e-01     2.153e-01    2.120e-03
  483     483.000s     2.124e-01     2.145e-01    2.091e-03
  484     484.000s     2.115e-01     2.137e-01    2.140e-03
  485     485.000s     2.106e-01     2.128e-01    2.251e-03
  486     486.000s     2.096e-01     2.120e-01    2.428e-03
  487     487.000s     2.085e-01     2.112e-01    2.683e-03
  488     488.000s     2.073e-01     2.104e-01    3.021e-03
  489     489.000s     2.061e-01     2.096e-01    3.430e-03
  490     490.000s     2.049e-01     2.087e-01    3.871e-03
  491     491.000s     2.036e-01     2.079e-01    4.284e-03
  492     492.000s     2.025e-01     2.071e-01    4.611e-03
