SIMFIT RESULTS
==============

Dataset : /opt/topspin3.5pl6/data/e3b/joachim/87Rb-CRN/11/pdata/992/ct1t2.txt

INTENSITY fit : Exponential decay (T2 or T1rho) : I[t]=I[0]*exp(-t/T)

216 points for Peak 1

Converged after 213 iterations!

Results     Comp. 1       Comp. 2    

I[0]  =   -1.730e-02     1.019e+00  
T     =       5.626s      148.546s  

RSS   =    3.709e-03
SD    =    4.144e-03

Point       Tau          Expt          Calc       Difference

    1       1.000s     1.000e+00     9.978e-01   -2.219e-03
    2       2.000s     9.946e-01     9.933e-01   -1.247e-03
    3       3.000s     9.893e-01     9.886e-01   -7.226e-04
    4       4.000s     9.835e-01     9.835e-01    5.859e-05
    5       5.000s     9.769e-01     9.783e-01    1.386e-03
    6       6.000s     9.700e-01     9.728e-01    2.810e-03
    7       7.000s     9.636e-01     9.672e-01    3.630e-03
    8       8.000s     9.579e-01     9.615e-01    3.559e-03
    9       9.000s     9.528e-01     9.557e-01    2.849e-03
   10      10.000s     9.479e-01     9.498e-01    1.911e-03
   11      11.000s     9.429e-01     9.439e-01    9.819e-04
   12      12.000s     9.378e-01     9.380e-01    1.446e-04
   13      13.000s     9.325e-01     9.320e-01   -5.112e-04
   14      14.000s     9.269e-01     9.260e-01   -9.057e-04
   15      15.000s     9.212e-01     9.200e-01   -1.147e-03
   16      16.000s     9.156e-01     9.140e-01   -1.563e-03
   17      17.000s     9.105e-01     9.081e-01   -2.401e-03
   18      18.000s     9.056e-01     9.021e-01   -3.489e-03
   19      19.000s     9.004e-01     8.962e-01   -4.295e-03
   20      20.000s     8.947e-01     8.902e-01   -4.426e-03
   21      21.000s     8.884e-01     8.843e-01   -4.016e-03
   22      22.000s     8.820e-01     8.785e-01   -3.531e-03
   23      23.000s     8.759e-01     8.726e-01   -3.268e-03
   24      24.000s     8.700e-01     8.668e-01   -3.202e-03
   25      25.000s     8.643e-01     8.610e-01   -3.308e-03
   26      26.000s     8.591e-01     8.553e-01   -3.759e-03
   27      27.000s     8.542e-01     8.496e-01   -4.591e-03
   28      28.000s     8.492e-01     8.439e-01   -5.337e-03
   29      29.000s     8.436e-01     8.383e-01   -5.323e-03
   30      30.000s     8.371e-01     8.327e-01   -4.420e-03
   31      31.000s     8.304e-01     8.271e-01   -3.273e-03
   32      32.000s     8.242e-01     8.215e-01   -2.630e-03
   33      33.000s     8.186e-01     8.160e-01   -2.593e-03
   34      34.000s     8.133e-01     8.106e-01   -2.685e-03
   35      35.000s     8.077e-01     8.051e-01   -2.541e-03
   36      36.000s     8.020e-01     7.997e-01   -2.288e-03
   37      37.000s     7.966e-01     7.944e-01   -2.223e-03
   38      38.000s     7.915e-01     7.891e-01   -2.408e-03
   39      39.000s     7.865e-01     7.838e-01   -2.719e-03
   40      40.000s     7.816e-01     7.785e-01   -3.125e-03
   41      41.000s     7.770e-01     7.733e-01   -3.686e-03
   42      42.000s     7.724e-01     7.681e-01   -4.314e-03
   43      43.000s     7.677e-01     7.630e-01   -4.778e-03
   44      44.000s     7.628e-01     7.578e-01   -4.979e-03
   45      45.000s     7.578e-01     7.527e-01   -5.051e-03
   46      46.000s     7.528e-01     7.477e-01   -5.086e-03
   47      47.000s     7.476e-01     7.427e-01   -4.905e-03
   48      48.000s     7.420e-01     7.377e-01   -4.288e-03
   49      49.000s     7.361e-01     7.328e-01   -3.360e-03
   50      50.000s     7.304e-01     7.278e-01   -2.549e-03
   51      51.000s     7.251e-01     7.230e-01   -2.109e-03
   52      52.000s     7.199e-01     7.181e-01   -1.820e-03
   53      53.000s     7.145e-01     7.133e-01   -1.245e-03
   54      54.000s     7.087e-01     7.085e-01   -2.173e-04
   55      55.000s     7.028e-01     7.037e-01    9.818e-04
   56      56.000s     6.971e-01     6.990e-01    1.879e-03
   57      57.000s     6.922e-01     6.943e-01    2.159e-03
   58      58.000s     6.878e-01     6.897e-01    1.843e-03
   59      59.000s     6.838e-01     6.851e-01    1.248e-03
   60      60.000s     6.797e-01     6.805e-01    7.791e-04
   61      61.000s     6.752e-01     6.759e-01    6.556e-04
   62      62.000s     6.706e-01     6.714e-01    7.971e-04
   63      63.000s     6.659e-01     6.669e-01    9.807e-04
   64      64.000s     6.613e-01     6.624e-01    1.095e-03
   65      65.000s     6.567e-01     6.579e-01    1.194e-03
   66      66.000s     6.522e-01     6.535e-01    1.350e-03
   67      67.000s     6.476e-01     6.491e-01    1.570e-03
   68      68.000s     6.429e-01     6.448e-01    1.872e-03
   69      69.000s     6.382e-01     6.405e-01    2.301e-03
   70      70.000s     6.334e-01     6.362e-01    2.796e-03
   71      71.000s     6.287e-01     6.319e-01    3.168e-03
   72      72.000s     6.243e-01     6.276e-01    3.304e-03
   73      73.000s     6.201e-01     6.234e-01    3.332e-03
   74      74.000s     6.158e-01     6.193e-01    3.447e-03
   75      75.000s     6.114e-01     6.151e-01    3.659e-03
   76      76.000s     6.071e-01     6.110e-01    3.845e-03
   77      77.000s     6.029e-01     6.069e-01    4.007e-03
   78      78.000s     5.986e-01     6.028e-01    4.234e-03
   79      79.000s     5.943e-01     5.988e-01    4.419e-03
   80      80.000s     5.905e-01     5.947e-01    4.255e-03
   81      81.000s     5.871e-01     5.907e-01    3.697e-03
   82      82.000s     5.836e-01     5.868e-01    3.218e-03
   83      83.000s     5.795e-01     5.828e-01    3.366e-03
   84      84.000s     5.748e-01     5.789e-01    4.097e-03
   85      85.000s     5.703e-01     5.751e-01    4.771e-03
   86      86.000s     5.664e-01     5.712e-01    4.845e-03
   87      87.000s     5.630e-01     5.674e-01    4.389e-03
   88      88.000s     5.597e-01     5.636e-01    3.883e-03
   89      89.000s     5.561e-01     5.598e-01    3.669e-03
   90      90.000s     5.523e-01     5.560e-01    3.688e-03
   91      91.000s     5.486e-01     5.523e-01    3.651e-03
   92      92.000s     5.452e-01     5.486e-01    3.398e-03
   93      93.000s     5.418e-01     5.449e-01    3.129e-03
   94      94.000s     5.380e-01     5.412e-01    3.294e-03
   95      95.000s     5.335e-01     5.376e-01    4.115e-03
   96      96.000s     5.288e-01     5.340e-01    5.162e-03
   97      97.000s     5.248e-01     5.304e-01    5.615e-03
   98      98.000s     5.218e-01     5.269e-01    5.087e-03
   99      99.000s     5.193e-01     5.233e-01    4.056e-03
  100     100.000s     5.165e-01     5.198e-01    3.293e-03
  101     101.000s     5.133e-01     5.163e-01    3.053e-03
  102     102.000s     5.098e-01     5.129e-01    3.052e-03
  103     103.000s     5.063e-01     5.094e-01    3.120e-03
  104     104.000s     5.026e-01     5.060e-01    3.433e-03
  105     105.000s     4.986e-01     5.026e-01    4.046e-03
  106     106.000s     4.946e-01     4.992e-01    4.604e-03
  107     107.000s     4.911e-01     4.959e-01    4.754e-03
  108     108.000s     4.880e-01     4.926e-01    4.554e-03
  109     109.000s     4.850e-01     4.893e-01    4.221e-03
  110     110.000s     4.822e-01     4.860e-01    3.767e-03
  111     111.000s     4.795e-01     4.827e-01    3.255e-03
  112     112.000s     4.763e-01     4.795e-01    3.174e-03
  113     113.000s     4.723e-01     4.763e-01    3.992e-03
  114     114.000s     4.678e-01     4.731e-01    5.304e-03
  115     115.000s     4.639e-01     4.699e-01    5.997e-03
  116     116.000s     4.612e-01     4.667e-01    5.541e-03
  117     117.000s     4.589e-01     4.636e-01    4.695e-03
  118     118.000s     4.559e-01     4.605e-01    4.549e-03
  119     119.000s     4.522e-01     4.574e-01    5.163e-03
  120     120.000s     4.487e-01     4.543e-01    5.593e-03
  121     121.000s     4.461e-01     4.513e-01    5.145e-03
  122     122.000s     4.442e-01     4.483e-01    4.102e-03
  123     123.000s     4.421e-01     4.453e-01    3.199e-03
  124     124.000s     4.394e-01     4.423e-01    2.857e-03
  125     125.000s     4.362e-01     4.393e-01    3.059e-03
  126     126.000s     4.328e-01     4.364e-01    3.570e-03
  127     127.000s     4.294e-01     4.334e-01    3.984e-03
  128     128.000s     4.267e-01     4.305e-01    3.863e-03
  129     129.000s     4.244e-01     4.276e-01    3.194e-03
  130     130.000s     4.222e-01     4.248e-01    2.542e-03
  131     131.000s     4.195e-01     4.219e-01    2.414e-03
  132     132.000s     4.165e-01     4.191e-01    2.555e-03
  133     133.000s     4.140e-01     4.163e-01    2.262e-03
  134     134.000s     4.121e-01     4.135e-01    1.360e-03
  135     135.000s     4.102e-01     4.107e-01    4.641e-04
  136     136.000s     4.078e-01     4.079e-01    1.317e-04
  137     137.000s     4.050e-01     4.052e-01    1.720e-04
  138     138.000s     4.024e-01     4.025e-01    8.998e-05
  139     139.000s     3.999e-01     3.998e-01   -7.196e-05
  140     140.000s     3.969e-01     3.971e-01    2.084e-04
  141     141.000s     3.934e-01     3.944e-01    1.079e-03
  142     142.000s     3.898e-01     3.918e-01    1.956e-03
  143     143.000s     3.870e-01     3.892e-01    2.192e-03
  144     144.000s     3.847e-01     3.866e-01    1.831e-03
  145     145.000s     3.825e-01     3.840e-01    1.422e-03
  146     146.000s     3.801e-01     3.814e-01    1.255e-03
  147     147.000s     3.777e-01     3.788e-01    1.086e-03
  148     148.000s     3.756e-01     3.763e-01    6.733e-04
  149     149.000s     3.735e-01     3.738e-01    2.710e-04
  150     150.000s     3.709e-01     3.713e-01    3.768e-04
  151     151.000s     3.677e-01     3.688e-01    1.092e-03
  152     152.000s     3.643e-01     3.663e-01    1.993e-03
  153     153.000s     3.612e-01     3.638e-01    2.642e-03
  154     154.000s     3.584e-01     3.614e-01    2.982e-03
  155     155.000s     3.559e-01     3.590e-01    3.102e-03
  156     156.000s     3.537e-01     3.566e-01    2.891e-03
  157     157.000s     3.519e-01     3.542e-01    2.242e-03
  158     158.000s     3.503e-01     3.518e-01    1.508e-03
  159     159.000s     3.481e-01     3.494e-01    1.293e-03
  160     160.000s     3.454e-01     3.471e-01    1.653e-03
  161     161.000s     3.429e-01     3.448e-01    1.881e-03
  162     162.000s     3.410e-01     3.424e-01    1.412e-03
  163     163.000s     3.395e-01     3.401e-01    6.327e-04
  164     164.000s     3.375e-01     3.379e-01    3.504e-04
  165     165.000s     3.350e-01     3.356e-01    5.978e-04
  166     166.000s     3.328e-01     3.333e-01    5.609e-04
  167     167.000s     3.313e-01     3.311e-01   -1.967e-04
  168     168.000s     3.299e-01     3.289e-01   -1.020e-03
  169     169.000s     3.277e-01     3.267e-01   -1.043e-03
  170     170.000s     3.248e-01     3.245e-01   -3.604e-04
  171     171.000s     3.221e-01     3.223e-01    2.257e-04
  172     172.000s     3.198e-01     3.201e-01    3.809e-04
  173     173.000s     3.175e-01     3.180e-01    5.446e-04
  174     174.000s     3.148e-01     3.159e-01    1.046e-03
  175     175.000s     3.122e-01     3.137e-01    1.513e-03
  176     176.000s     3.103e-01     3.116e-01    1.386e-03
  177     177.000s     3.090e-01     3.096e-01    5.861e-04
  178     178.000s     3.081e-01     3.075e-01   -6.196e-04
  179     179.000s     3.074e-01     3.054e-01   -1.983e-03
  180     180.000s     3.065e-01     3.034e-01   -3.137e-03
  181     181.000s     3.048e-01     3.013e-01   -3.453e-03
  182     182.000s     3.020e-01     2.993e-01   -2.652e-03
  183     183.000s     2.988e-01     2.973e-01   -1.456e-03
  184     184.000s     2.963e-01     2.953e-01   -1.037e-03
  185     185.000s     2.950e-01     2.933e-01   -1.701e-03
  186     186.000s     2.939e-01     2.914e-01   -2.576e-03
  187     187.000s     2.922e-01     2.894e-01   -2.805e-03
  188     188.000s     2.901e-01     2.875e-01   -2.593e-03
  189     189.000s     2.883e-01     2.855e-01   -2.737e-03
  190     190.000s     2.871e-01     2.836e-01   -3.466e-03
  191     191.000s     2.860e-01     2.817e-01   -4.249e-03
  192     192.000s     2.844e-01     2.798e-01   -4.618e-03
  193     193.000s     2.827e-01     2.779e-01   -4.716e-03
  194     194.000s     2.810e-01     2.761e-01   -4.957e-03
  195     195.000s     2.797e-01     2.742e-01   -5.481e-03
  196     196.000s     2.785e-01     2.724e-01   -6.091e-03
  197     197.000s     2.771e-01     2.706e-01   -6.493e-03
  198     198.000s     2.752e-01     2.687e-01   -6.491e-03
  199     199.000s     2.731e-01     2.669e-01   -6.129e-03
  200     200.000s     2.709e-01     2.651e-01   -5.765e-03
  201     201.000s     2.692e-01     2.634e-01   -5.861e-03
  202     202.000s     2.682e-01     2.616e-01   -6.562e-03
  203     203.000s     2.674e-01     2.598e-01   -7.569e-03
  204     204.000s     2.666e-01     2.581e-01   -8.483e-03
  205     205.000s     2.655e-01     2.564e-01   -9.128e-03
  206     206.000s     2.641e-01     2.547e-01   -9.470e-03
  207     207.000s     2.624e-01     2.529e-01   -9.419e-03
  208     208.000s     2.602e-01     2.512e-01   -8.945e-03
  209     209.000s     2.579e-01     2.496e-01   -8.311e-03
  210     210.000s     2.559e-01     2.479e-01   -8.028e-03
  211     211.000s     2.548e-01     2.462e-01   -8.564e-03
  212     212.000s     2.547e-01     2.446e-01   -1.008e-02
  213     213.000s     2.552e-01     2.429e-01   -1.225e-02
  214     214.000s     2.555e-01     2.413e-01   -1.417e-02
  215     215.000s     2.545e-01     2.397e-01   -1.482e-02
  216     216.000s     2.520e-01     2.381e-01   -1.397e-02

============================================================

