SIMFIT RESULTS
==============

Dataset : /opt/topspin3.5pl6/data/e3b/joachim/87Rb-CRN/4/pdata/992/ct1t2.txt

INTENSITY fit : Exponential decay (T2 or T1rho) : I[t]=I[0]*exp(-t/T)

1227 points for Peak 1

Converged after 9790 iterations!

Results     Comp. 1       Comp. 2    

I[0]  =   -3.571e+01     3.671e+01  
T     =     468.473s      475.804s  

RSS   =    2.119e-03
SD    =    1.314e-03

Point       Tau          Expt          Calc       Difference

    1       1.000s     1.000e+00     9.983e-01   -1.655e-03
    2       2.000s     9.990e-01     9.974e-01   -1.622e-03
    3       3.000s     9.981e-01     9.965e-01   -1.590e-03
    4       4.000s     9.971e-01     9.956e-01   -1.559e-03
    5       5.000s     9.962e-01     9.946e-01   -1.528e-03
    6       6.000s     9.952e-01     9.937e-01   -1.498e-03
    7       7.000s     9.942e-01     9.928e-01   -1.469e-03
    8       8.000s     9.933e-01     9.918e-01   -1.440e-03
    9       9.000s     9.923e-01     9.909e-01   -1.412e-03
   10      10.000s     9.914e-01     9.900e-01   -1.383e-03
   11      11.000s     9.904e-01     9.891e-01   -1.355e-03
   12      12.000s     9.895e-01     9.881e-01   -1.326e-03
   13      13.000s     9.885e-01     9.872e-01   -1.297e-03
   14      14.000s     9.875e-01     9.863e-01   -1.268e-03
   15      15.000s     9.866e-01     9.853e-01   -1.238e-03
   16      16.000s     9.856e-01     9.844e-01   -1.206e-03
   17      17.000s     9.846e-01     9.835e-01   -1.174e-03
   18      18.000s     9.837e-01     9.825e-01   -1.140e-03
   19      19.000s     9.827e-01     9.816e-01   -1.105e-03
   20      20.000s     9.817e-01     9.807e-01   -1.068e-03
   21      21.000s     9.807e-01     9.797e-01   -1.029e-03
   22      22.000s     9.798e-01     9.788e-01   -9.881e-04
   23      23.000s     9.788e-01     9.778e-01   -9.448e-04
   24      24.000s     9.778e-01     9.769e-01   -8.992e-04
   25      25.000s     9.768e-01     9.760e-01   -8.512e-04
   26      26.000s     9.758e-01     9.750e-01   -8.008e-04
   27      27.000s     9.748e-01     9.741e-01   -7.481e-04
   28      28.000s     9.738e-01     9.732e-01   -6.931e-04
   29      29.000s     9.729e-01     9.722e-01   -6.359e-04
   30      30.000s     9.719e-01     9.713e-01   -5.767e-04
   31      31.000s     9.709e-01     9.703e-01   -5.156e-04
   32      32.000s     9.699e-01     9.694e-01   -4.528e-04
   33      33.000s     9.688e-01     9.685e-01   -3.887e-04
   34      34.000s     9.678e-01     9.675e-01   -3.234e-04
   35      35.000s     9.668e-01     9.666e-01   -2.573e-04
   36      36.000s     9.658e-01     9.656e-01   -1.907e-04
   37      37.000s     9.648e-01     9.647e-01   -1.239e-04
   38      38.000s     9.638e-01     9.637e-01   -5.728e-05
   39      39.000s     9.628e-01     9.628e-01    8.870e-06
   40      40.000s     9.618e-01     9.619e-01    7.418e-05
   41      41.000s     9.608e-01     9.609e-01    1.383e-04
   42      42.000s     9.598e-01     9.600e-01    2.009e-04
   43      43.000s     9.588e-01     9.590e-01    2.617e-04
   44      44.000s     9.578e-01     9.581e-01    3.203e-04
   45      45.000s     9.568e-01     9.571e-01    3.764e-04
   46      46.000s     9.558e-01     9.562e-01    4.298e-04
   47      47.000s     9.548e-01     9.553e-01    4.802e-04
   48      48.000s     9.538e-01     9.543e-01    5.273e-04
   49      49.000s     9.528e-01     9.534e-01    5.709e-04
   50      50.000s     9.518e-01     9.524e-01    6.107e-04
   51      51.000s     9.508e-01     9.515e-01    6.467e-04
   52      52.000s     9.498e-01     9.505e-01    6.786e-04
   53      53.000s     9.489e-01     9.496e-01    7.062e-04
   54      54.000s     9.479e-01     9.486e-01    7.296e-04
   55      55.000s     9.469e-01     9.477e-01    7.485e-04
   56      56.000s     9.460e-01     9.467e-01    7.629e-04
   57      57.000s     9.450e-01     9.458e-01    7.729e-04
   58      58.000s     9.441e-01     9.448e-01    7.783e-04
   59      59.000s     9.431e-01     9.439e-01    7.793e-04
   60      60.000s     9.422e-01     9.429e-01    7.758e-04
   61      61.000s     9.412e-01     9.420e-01    7.681e-04
   62      62.000s     9.403e-01     9.410e-01    7.561e-04
   63      63.000s     9.394e-01     9.401e-01    7.401e-04
   64      64.000s     9.384e-01     9.391e-01    7.203e-04
   65      65.000s     9.375e-01     9.382e-01    6.968e-04
   66      66.000s     9.366e-01     9.372e-01    6.699e-04
   67      67.000s     9.357e-01     9.363e-01    6.399e-04
   68      68.000s     9.347e-01     9.353e-01    6.070e-04
   69      69.000s     9.338e-01     9.344e-01    5.716e-04
   70      70.000s     9.329e-01     9.334e-01    5.340e-04
   71      71.000s     9.320e-01     9.325e-01    4.945e-04
   72      72.000s     9.311e-01     9.315e-01    4.535e-04
   73      73.000s     9.302e-01     9.306e-01    4.112e-04
   74      74.000s     9.293e-01     9.296e-01    3.681e-04
   75      75.000s     9.284e-01     9.287e-01    3.244e-04
   76      76.000s     9.275e-01     9.277e-01    2.806e-04
   77      77.000s     9.266e-01     9.268e-01    2.369e-04
   78      78.000s     9.256e-01     9.258e-01    1.936e-04
   79      79.000s     9.247e-01     9.249e-01    1.510e-04
   80      80.000s     9.238e-01     9.239e-01    1.094e-04
   81      81.000s     9.229e-01     9.230e-01    6.909e-05
   82      82.000s     9.220e-01     9.220e-01    3.020e-05
   83      83.000s     9.211e-01     9.211e-01   -7.000e-06
   84      84.000s     9.202e-01     9.201e-01   -4.234e-05
   85      85.000s     9.193e-01     9.192e-01   -7.564e-05
   86      86.000s     9.183e-01     9.182e-01   -1.068e-04
   87      87.000s     9.174e-01     9.173e-01   -1.355e-04
   88      88.000s     9.165e-01     9.163e-01   -1.619e-04
   89      89.000s     9.156e-01     9.154e-01   -1.857e-04
   90      90.000s     9.146e-01     9.144e-01   -2.068e-04
   91      91.000s     9.137e-01     9.135e-01   -2.253e-04
   92      92.000s     9.128e-01     9.125e-01   -2.410e-04
   93      93.000s     9.118e-01     9.116e-01   -2.538e-04
   94      94.000s     9.109e-01     9.106e-01   -2.638e-04
   95      95.000s     9.099e-01     9.097e-01   -2.709e-04
   96      96.000s     9.090e-01     9.087e-01   -2.752e-04
   97      97.000s     9.080e-01     9.077e-01   -2.766e-04
   98      98.000s     9.071e-01     9.068e-01   -2.752e-04
   99      99.000s     9.061e-01     9.058e-01   -2.710e-04
  100     100.000s     9.052e-01     9.049e-01   -2.641e-04
  101     101.000s     9.042e-01     9.039e-01   -2.547e-04
  102     102.000s     9.032e-01     9.030e-01   -2.428e-04
  103     103.000s     9.023e-01     9.020e-01   -2.287e-04
  104     104.000s     9.013e-01     9.011e-01   -2.124e-04
  105     105.000s     9.003e-01     9.001e-01   -1.942e-04
  106     106.000s     8.993e-01     8.992e-01   -1.743e-04
  107     107.000s     8.984e-01     8.982e-01   -1.530e-04
  108     108.000s     8.974e-01     8.973e-01   -1.305e-04
  109     109.000s     8.964e-01     8.963e-01   -1.070e-04
  110     110.000s     8.954e-01     8.954e-01   -8.297e-05
  111     111.000s     8.945e-01     8.944e-01   -5.855e-05
  112     112.000s     8.935e-01     8.935e-01   -3.407e-05
  113     113.000s     8.925e-01     8.925e-01   -9.799e-06
  114     114.000s     8.915e-01     8.915e-01    1.398e-05
  115     115.000s     8.906e-01     8.906e-01    3.701e-05
  116     116.000s     8.896e-01     8.896e-01    5.906e-05
  117     117.000s     8.886e-01     8.887e-01    7.992e-05
  118     118.000s     8.876e-01     8.877e-01    9.941e-05
  119     119.000s     8.867e-01     8.868e-01    1.174e-04
  120     120.000s     8.857e-01     8.858e-01    1.337e-04
  121     121.000s     8.847e-01     8.849e-01    1.483e-04
  122     122.000s     8.838e-01     8.839e-01    1.612e-04
  123     123.000s     8.828e-01     8.830e-01    1.723e-04
  124     124.000s     8.818e-01     8.820e-01    1.817e-04
  125     125.000s     8.809e-01     8.811e-01    1.894e-04
  126     126.000s     8.799e-01     8.801e-01    1.955e-04
  127     127.000s     8.790e-01     8.792e-01    2.002e-04
  128     128.000s     8.780e-01     8.782e-01    2.035e-04
  129     129.000s     8.771e-01     8.773e-01    2.057e-04
  130     130.000s     8.761e-01     8.763e-01    2.068e-04
  131     131.000s     8.751e-01     8.754e-01    2.071e-04
  132     132.000s     8.742e-01     8.744e-01    2.067e-04
  133     133.000s     8.732e-01     8.735e-01    2.058e-04
  134     134.000s     8.723e-01     8.725e-01    2.045e-04
  135     135.000s     8.713e-01     8.715e-01    2.030e-04
  136     136.000s     8.704e-01     8.706e-01    2.014e-04
  137     137.000s     8.694e-01     8.696e-01    1.997e-04
  138     138.000s     8.685e-01     8.687e-01    1.982e-04
  139     139.000s     8.675e-01     8.677e-01    1.967e-04
  140     140.000s     8.666e-01     8.668e-01    1.954e-04
  141     141.000s     8.656e-01     8.658e-01    1.942e-04
  142     142.000s     8.647e-01     8.649e-01    1.932e-04
  143     143.000s     8.638e-01     8.639e-01    1.923e-04
  144     144.000s     8.628e-01     8.630e-01    1.916e-04
  145     145.000s     8.619e-01     8.620e-01    1.908e-04
  146     146.000s     8.609e-01     8.611e-01    1.900e-04
  147     147.000s     8.600e-01     8.601e-01    1.891e-04
  148     148.000s     8.590e-01     8.592e-01    1.879e-04
  149     149.000s     8.581e-01     8.582e-01    1.865e-04
  150     150.000s     8.571e-01     8.573e-01    1.847e-04
  151     151.000s     8.562e-01     8.563e-01    1.825e-04
  152     152.000s     8.552e-01     8.554e-01    1.797e-04
  153     153.000s     8.543e-01     8.544e-01    1.763e-04
  154     154.000s     8.533e-01     8.535e-01    1.723e-04
  155     155.000s     8.524e-01     8.526e-01    1.676e-04
  156     156.000s     8.514e-01     8.516e-01    1.622e-04
  157     157.000s     8.505e-01     8.507e-01    1.561e-04
  158     158.000s     8.496e-01     8.497e-01    1.493e-04
  159     159.000s     8.486e-01     8.488e-01    1.419e-04
  160     160.000s     8.477e-01     8.478e-01    1.338e-04
  161     161.000s     8.467e-01     8.469e-01    1.252e-04
  162     162.000s     8.458e-01     8.459e-01    1.162e-04
  163     163.000s     8.449e-01     8.450e-01    1.068e-04
  164     164.000s     8.439e-01     8.440e-01    9.724e-05
  165     165.000s     8.430e-01     8.431e-01    8.765e-05
  166     166.000s     8.421e-01     8.421e-01    7.819e-05
  167     167.000s     8.411e-01     8.412e-01    6.905e-05
  168     168.000s     8.402e-01     8.402e-01    6.041e-05
  169     169.000s     8.392e-01     8.393e-01    5.247e-05
  170     170.000s     8.383e-01     8.384e-01    4.545e-05
  171     171.000s     8.374e-01     8.374e-01    3.957e-05
  172     172.000s     8.364e-01     8.365e-01    3.503e-05
  173     173.000s     8.355e-01     8.355e-01    3.206e-05
  174     174.000s     8.345e-01     8.346e-01    3.087e-05
  175     175.000s     8.336e-01     8.336e-01    3.167e-05
  176     176.000s     8.327e-01     8.327e-01    3.466e-05
  177     177.000s     8.317e-01     8.317e-01    4.005e-05
  178     178.000s     8.308e-01     8.308e-01    4.801e-05
  179     179.000s     8.298e-01     8.299e-01    5.872e-05
  180     180.000s     8.288e-01     8.289e-01    7.233e-05
  181     181.000s     8.279e-01     8.280e-01    8.897e-05
  182     182.000s     8.269e-01     8.270e-01    1.088e-04
  183     183.000s     8.260e-01     8.261e-01    1.318e-04
  184     184.000s     8.250e-01     8.252e-01    1.581e-04
  185     185.000s     8.240e-01     8.242e-01    1.878e-04
  186     186.000s     8.230e-01     8.233e-01    2.209e-04
  187     187.000s     8.221e-01     8.223e-01    2.573e-04
  188     188.000s     8.211e-01     8.214e-01    2.971e-04
  189     189.000s     8.201e-01     8.204e-01    3.401e-04
  190     190.000s     8.191e-01     8.195e-01    3.862e-04
  191     191.000s     8.181e-01     8.186e-01    4.354e-04
  192     192.000s     8.171e-01     8.176e-01    4.874e-04
  193     193.000s     8.161e-01     8.167e-01    5.421e-04
  194     194.000s     8.152e-01     8.158e-01    5.994e-04
  195     195.000s     8.142e-01     8.148e-01    6.589e-04
  196     196.000s     8.132e-01     8.139e-01    7.205e-04
  197     197.000s     8.122e-01     8.129e-01    7.839e-04
  198     198.000s     8.112e-01     8.120e-01    8.489e-04
  199     199.000s     8.102e-01     8.111e-01    9.152e-04
  200     200.000s     8.091e-01     8.101e-01    9.826e-04
  201     201.000s     8.081e-01     8.092e-01    1.051e-03
  202     202.000s     8.071e-01     8.083e-01    1.119e-03
  203     203.000s     8.061e-01     8.073e-01    1.188e-03
  204     204.000s     8.051e-01     8.064e-01    1.257e-03
  205     205.000s     8.041e-01     8.055e-01    1.326e-03
  206     206.000s     8.031e-01     8.045e-01    1.395e-03
  207     207.000s     8.021e-01     8.036e-01    1.462e-03
  208     208.000s     8.011e-01     8.027e-01    1.529e-03
  209     209.000s     8.001e-01     8.017e-01    1.594e-03
  210     210.000s     7.991e-01     8.008e-01    1.658e-03
  211     211.000s     7.981e-01     7.999e-01    1.720e-03
  212     212.000s     7.971e-01     7.989e-01    1.780e-03
  213     213.000s     7.961e-01     7.980e-01    1.838e-03
  214     214.000s     7.952e-01     7.971e-01    1.894e-03
  215     215.000s     7.942e-01     7.961e-01    1.946e-03
  216     216.000s     7.932e-01     7.952e-01    1.996e-03
  217     217.000s     7.922e-01     7.943e-01    2.042e-03
  218     218.000s     7.912e-01     7.933e-01    2.084e-03
  219     219.000s     7.903e-01     7.924e-01    2.123e-03
  220     220.000s     7.893e-01     7.915e-01    2.158e-03
  221     221.000s     7.884e-01     7.905e-01    2.189e-03
  222     222.000s     7.874e-01     7.896e-01    2.215e-03
  223     223.000s     7.865e-01     7.887e-01    2.236e-03
  224     224.000s     7.855e-01     7.878e-01    2.253e-03
  225     225.000s     7.846e-01     7.868e-01    2.265e-03
  226     226.000s     7.836e-01     7.859e-01    2.271e-03
  227     227.000s     7.827e-01     7.850e-01    2.272e-03
  228     228.000s     7.818e-01     7.841e-01    2.267e-03
  229     229.000s     7.809e-01     7.831e-01    2.257e-03
  230     230.000s     7.800e-01     7.822e-01    2.242e-03
  231     231.000s     7.791e-01     7.813e-01    2.220e-03
  232     232.000s     7.782e-01     7.804e-01    2.193e-03
  233     233.000s     7.773e-01     7.794e-01    2.160e-03
  234     234.000s     7.764e-01     7.785e-01    2.121e-03
  235     235.000s     7.755e-01     7.776e-01    2.076e-03
  236     236.000s     7.746e-01     7.767e-01    2.026e-03
  237     237.000s     7.738e-01     7.757e-01    1.970e-03
  238     238.000s     7.729e-01     7.748e-01    1.909e-03
  239     239.000s     7.721e-01     7.739e-01    1.842e-03
  240     240.000s     7.712e-01     7.730e-01    1.770e-03
  241     241.000s     7.704e-01     7.721e-01    1.694e-03
  242     242.000s     7.695e-01     7.711e-01    1.612e-03
  243     243.000s     7.687e-01     7.702e-01    1.526e-03
  244     244.000s     7.679e-01     7.693e-01    1.436e-03
  245     245.000s     7.670e-01     7.684e-01    1.342e-03
  246     246.000s     7.662e-01     7.675e-01    1.245e-03
  247     247.000s     7.654e-01     7.665e-01    1.144e-03
  248     248.000s     7.646e-01     7.656e-01    1.040e-03
  249     249.000s     7.638e-01     7.647e-01    9.345e-04
  250     250.000s     7.630e-01     7.638e-01    8.265e-04
  251     251.000s     7.622e-01     7.629e-01    7.168e-04
  252     252.000s     7.613e-01     7.620e-01    6.059e-04
  253     253.000s     7.605e-01     7.610e-01    4.940e-04
  254     254.000s     7.597e-01     7.601e-01    3.816e-04
  255     255.000s     7.589e-01     7.592e-01    2.690e-04
  256     256.000s     7.581e-01     7.583e-01    1.567e-04
  257     257.000s     7.573e-01     7.574e-01    4.479e-05
  258     258.000s     7.565e-01     7.565e-01   -6.626e-05
  259     259.000s     7.557e-01     7.556e-01   -1.762e-04
  260     260.000s     7.549e-01     7.546e-01   -2.847e-04
  261     261.000s     7.541e-01     7.537e-01   -3.916e-04
  262     262.000s     7.533e-01     7.528e-01   -4.967e-04
  263     263.000s     7.525e-01     7.519e-01   -5.996e-04
  264     264.000s     7.517e-01     7.510e-01   -7.003e-04
  265     265.000s     7.509e-01     7.501e-01   -7.986e-04
  266     266.000s     7.501e-01     7.492e-01   -8.942e-04
  267     267.000s     7.493e-01     7.483e-01   -9.871e-04
  268     268.000s     7.484e-01     7.474e-01   -1.077e-03
  269     269.000s     7.476e-01     7.465e-01   -1.164e-03
  270     270.000s     7.468e-01     7.456e-01   -1.248e-03
  271     271.000s     7.460e-01     7.446e-01   -1.328e-03
  272     272.000s     7.451e-01     7.437e-01   -1.405e-03
  273     273.000s     7.443e-01     7.428e-01   -1.478e-03
  274     274.000s     7.435e-01     7.419e-01   -1.548e-03
  275     275.000s     7.426e-01     7.410e-01   -1.614e-03
  276     276.000s     7.418e-01     7.401e-01   -1.675e-03
  277     277.000s     7.409e-01     7.392e-01   -1.733e-03
  278     278.000s     7.401e-01     7.383e-01   -1.787e-03
  279     279.000s     7.392e-01     7.374e-01   -1.836e-03
  280     280.000s     7.384e-01     7.365e-01   -1.880e-03
  281     281.000s     7.375e-01     7.356e-01   -1.920e-03
  282     282.000s     7.367e-01     7.347e-01   -1.956e-03
  283     283.000s     7.358e-01     7.338e-01   -1.987e-03
  284     284.000s     7.349e-01     7.329e-01   -2.013e-03
  285     285.000s     7.340e-01     7.320e-01   -2.034e-03
  286     286.000s     7.332e-01     7.311e-01   -2.051e-03
  287     287.000s     7.323e-01     7.302e-01   -2.063e-03
  288     288.000s     7.314e-01     7.293e-01   -2.070e-03
  289     289.000s     7.305e-01     7.284e-01   -2.073e-03
  290     290.000s     7.296e-01     7.275e-01   -2.071e-03
  291     291.000s     7.287e-01     7.266e-01   -2.064e-03
  292     292.000s     7.278e-01     7.257e-01   -2.054e-03
  293     293.000s     7.269e-01     7.248e-01   -2.040e-03
  294     294.000s     7.260e-01     7.239e-01   -2.021e-03
  295     295.000s     7.250e-01     7.230e-01   -2.000e-03
  296     296.000s     7.241e-01     7.221e-01   -1.975e-03
  297     297.000s     7.232e-01     7.213e-01   -1.946e-03
  298     298.000s     7.223e-01     7.204e-01   -1.916e-03
  299     299.000s     7.214e-01     7.195e-01   -1.882e-03
  300     300.000s     7.204e-01     7.186e-01   -1.847e-03
  301     301.000s     7.195e-01     7.177e-01   -1.810e-03
  302     302.000s     7.186e-01     7.168e-01   -1.771e-03
  303     303.000s     7.176e-01     7.159e-01   -1.732e-03
  304     304.000s     7.167e-01     7.150e-01   -1.691e-03
  305     305.000s     7.158e-01     7.141e-01   -1.650e-03
  306     306.000s     7.148e-01     7.132e-01   -1.608e-03
  307     307.000s     7.139e-01     7.124e-01   -1.566e-03
  308     308.000s     7.130e-01     7.115e-01   -1.525e-03
  309     309.000s     7.121e-01     7.106e-01   -1.483e-03
  310     310.000s     7.111e-01     7.097e-01   -1.443e-03
  311     311.000s     7.102e-01     7.088e-01   -1.403e-03
  312     312.000s     7.093e-01     7.079e-01   -1.364e-03
  313     313.000s     7.084e-01     7.070e-01   -1.326e-03
  314     314.000s     7.074e-01     7.062e-01   -1.289e-03
  315     315.000s     7.065e-01     7.053e-01   -1.253e-03
  316     316.000s     7.056e-01     7.044e-01   -1.218e-03
  317     317.000s     7.047e-01     7.035e-01   -1.184e-03
  318     318.000s     7.038e-01     7.026e-01   -1.152e-03
  319     319.000s     7.029e-01     7.017e-01   -1.120e-03
  320     320.000s     7.020e-01     7.009e-01   -1.089e-03
  321     321.000s     7.010e-01     7.000e-01   -1.059e-03
  322     322.000s     7.001e-01     6.991e-01   -1.029e-03
  323     323.000s     6.992e-01     6.982e-01   -9.990e-04
  324     324.000s     6.983e-01     6.974e-01   -9.694e-04
  325     325.000s     6.974e-01     6.965e-01   -9.397e-04
  326     326.000s     6.965e-01     6.956e-01   -9.096e-04
  327     327.000s     6.956e-01     6.947e-01   -8.789e-04
  328     328.000s     6.947e-01     6.938e-01   -8.473e-04
  329     329.000s     6.938e-01     6.930e-01   -8.148e-04
  330     330.000s     6.929e-01     6.921e-01   -7.811e-04
  331     331.000s     6.920e-01     6.912e-01   -7.461e-04
  332     332.000s     6.911e-01     6.904e-01   -7.097e-04
  333     333.000s     6.902e-01     6.895e-01   -6.718e-04
  334     334.000s     6.892e-01     6.886e-01   -6.323e-04
  335     335.000s     6.883e-01     6.877e-01   -5.913e-04
  336     336.000s     6.874e-01     6.869e-01   -5.487e-04
  337     337.000s     6.865e-01     6.860e-01   -5.047e-04
  338     338.000s     6.856e-01     6.851e-01   -4.594e-04
  339     339.000s     6.847e-01     6.843e-01   -4.128e-04
  340     340.000s     6.838e-01     6.834e-01   -3.652e-04
  341     341.000s     6.828e-01     6.825e-01   -3.168e-04
  342     342.000s     6.819e-01     6.817e-01   -2.677e-04
  343     343.000s     6.810e-01     6.808e-01   -2.182e-04
  344     344.000s     6.801e-01     6.799e-01   -1.686e-04
  345     345.000s     6.792e-01     6.791e-01   -1.192e-04
  346     346.000s     6.783e-01     6.782e-01   -7.003e-05
  347     347.000s     6.774e-01     6.773e-01   -2.155e-05
  348     348.000s     6.764e-01     6.765e-01    2.606e-05
  349     349.000s     6.755e-01     6.756e-01    7.254e-05
  350     350.000s     6.746e-01     6.747e-01    1.177e-04
  351     351.000s     6.737e-01     6.739e-01    1.613e-04
  352     352.000s     6.728e-01     6.730e-01    2.032e-04
  353     353.000s     6.719e-01     6.722e-01    2.432e-04
  354     354.000s     6.710e-01     6.713e-01    2.812e-04
  355     355.000s     6.701e-01     6.704e-01    3.172e-04
  356     356.000s     6.692e-01     6.696e-01    3.511e-04
  357     357.000s     6.683e-01     6.687e-01    3.828e-04
  358     358.000s     6.675e-01     6.679e-01    4.125e-04
  359     359.000s     6.666e-01     6.670e-01    4.400e-04
  360     360.000s     6.657e-01     6.662e-01    4.656e-04
  361     361.000s     6.648e-01     6.653e-01    4.892e-04
  362     362.000s     6.639e-01     6.644e-01    5.111e-04
  363     363.000s     6.631e-01     6.636e-01    5.313e-04
  364     364.000s     6.622e-01     6.627e-01    5.500e-04
  365     365.000s     6.613e-01     6.619e-01    5.672e-04
  366     366.000s     6.605e-01     6.610e-01    5.832e-04
  367     367.000s     6.596e-01     6.602e-01    5.980e-04
  368     368.000s     6.587e-01     6.593e-01    6.117e-04
  369     369.000s     6.579e-01     6.585e-01    6.244e-04
  370     370.000s     6.570e-01     6.576e-01    6.362e-04
  371     371.000s     6.561e-01     6.568e-01    6.472e-04
  372     372.000s     6.553e-01     6.559e-01    6.572e-04
  373     373.000s     6.544e-01     6.551e-01    6.664e-04
  374     374.000s     6.536e-01     6.542e-01    6.747e-04
  375     375.000s     6.527e-01     6.534e-01    6.821e-04
  376     376.000s     6.519e-01     6.526e-01    6.885e-04
  377     377.000s     6.510e-01     6.517e-01    6.938e-04
  378     378.000s     6.502e-01     6.509e-01    6.980e-04
  379     379.000s     6.493e-01     6.500e-01    7.011e-04
  380     380.000s     6.485e-01     6.492e-01    7.029e-04
  381     381.000s     6.476e-01     6.483e-01    7.034e-04
  382     382.000s     6.468e-01     6.475e-01    7.026e-04
  383     383.000s     6.460e-01     6.467e-01    7.004e-04
  384     384.000s     6.451e-01     6.458e-01    6.969e-04
  385     385.000s     6.443e-01     6.450e-01    6.920e-04
  386     386.000s     6.434e-01     6.441e-01    6.858e-04
  387     387.000s     6.426e-01     6.433e-01    6.785e-04
  388     388.000s     6.418e-01     6.425e-01    6.700e-04
  389     389.000s     6.410e-01     6.416e-01    6.606e-04
  390     390.000s     6.401e-01     6.408e-01    6.504e-04
  391     391.000s     6.393e-01     6.399e-01    6.396e-04
  392     392.000s     6.385e-01     6.391e-01    6.284e-04
  393     393.000s     6.377e-01     6.383e-01    6.170e-04
  394     394.000s     6.368e-01     6.374e-01    6.058e-04
  395     395.000s     6.360e-01     6.366e-01    5.949e-04
  396     396.000s     6.352e-01     6.358e-01    5.845e-04
  397     397.000s     6.344e-01     6.350e-01    5.751e-04
  398     398.000s     6.336e-01     6.341e-01    5.667e-04
  399     399.000s     6.327e-01     6.333e-01    5.597e-04
  400     400.000s     6.319e-01     6.325e-01    5.542e-04
  401     401.000s     6.311e-01     6.316e-01    5.504e-04
  402     402.000s     6.303e-01     6.308e-01    5.484e-04
  403     403.000s     6.294e-01     6.300e-01    5.483e-04
  404     404.000s     6.286e-01     6.291e-01    5.502e-04
  405     405.000s     6.278e-01     6.283e-01    5.541e-04
  406     406.000s     6.269e-01     6.275e-01    5.601e-04
  407     407.000s     6.261e-01     6.267e-01    5.679e-04
  408     408.000s     6.253e-01     6.258e-01    5.776e-04
  409     409.000s     6.244e-01     6.250e-01    5.890e-04
  410     410.000s     6.236e-01     6.242e-01    6.020e-04
  411     411.000s     6.228e-01     6.234e-01    6.163e-04
  412     412.000s     6.219e-01     6.226e-01    6.317e-04
  413     413.000s     6.211e-01     6.217e-01    6.481e-04
  414     414.000s     6.203e-01     6.209e-01    6.652e-04
  415     415.000s     6.194e-01     6.201e-01    6.828e-04
  416     416.000s     6.186e-01     6.193e-01    7.006e-04
  417     417.000s     6.177e-01     6.185e-01    7.185e-04
  418     418.000s     6.169e-01     6.176e-01    7.362e-04
  419     419.000s     6.161e-01     6.168e-01    7.536e-04
  420     420.000s     6.152e-01     6.160e-01    7.705e-04
  421     421.000s     6.144e-01     6.152e-01    7.867e-04
  422     422.000s     6.136e-01     6.144e-01    8.023e-04
  423     423.000s     6.128e-01     6.136e-01    8.170e-04
  424     424.000s     6.119e-01     6.128e-01    8.308e-04
  425     425.000s     6.111e-01     6.119e-01    8.437e-04
  426     426.000s     6.103e-01     6.111e-01    8.556e-04
  427     427.000s     6.095e-01     6.103e-01    8.665e-04
  428     428.000s     6.086e-01     6.095e-01    8.765e-04
  429     429.000s     6.078e-01     6.087e-01    8.855e-04
  430     430.000s     6.070e-01     6.079e-01    8.935e-04
  431     431.000s     6.062e-01     6.071e-01    9.006e-04
  432     432.000s     6.054e-01     6.063e-01    9.068e-04
  433     433.000s     6.046e-01     6.055e-01    9.121e-04
  434     434.000s     6.037e-01     6.047e-01    9.164e-04
  435     435.000s     6.029e-01     6.039e-01    9.198e-04
  436     436.000s     6.021e-01     6.031e-01    9.223e-04
  437     437.000s     6.013e-01     6.022e-01    9.237e-04
  438     438.000s     6.005e-01     6.014e-01    9.240e-04
  439     439.000s     5.997e-01     6.006e-01    9.233e-04
  440     440.000s     5.989e-01     5.998e-01    9.214e-04
  441     441.000s     5.981e-01     5.990e-01    9.182e-04
  442     442.000s     5.973e-01     5.982e-01    9.136e-04
  443     443.000s     5.965e-01     5.974e-01    9.077e-04
  444     444.000s     5.957e-01     5.966e-01    9.003e-04
  445     445.000s     5.950e-01     5.958e-01    8.914e-04
  446     446.000s     5.942e-01     5.950e-01    8.809e-04
  447     447.000s     5.934e-01     5.942e-01    8.688e-04
  448     448.000s     5.926e-01     5.935e-01    8.551e-04
  449     449.000s     5.918e-01     5.927e-01    8.399e-04
  450     450.000s     5.910e-01     5.919e-01    8.231e-04
  451     451.000s     5.903e-01     5.911e-01    8.048e-04
  452     452.000s     5.895e-01     5.903e-01    7.852e-04
  453     453.000s     5.887e-01     5.895e-01    7.643e-04
  454     454.000s     5.879e-01     5.887e-01    7.422e-04
  455     455.000s     5.872e-01     5.879e-01    7.190e-04
  456     456.000s     5.864e-01     5.871e-01    6.950e-04
  457     457.000s     5.856e-01     5.863e-01    6.702e-04
  458     458.000s     5.849e-01     5.855e-01    6.449e-04
  459     459.000s     5.841e-01     5.847e-01    6.192e-04
  460     460.000s     5.834e-01     5.840e-01    5.931e-04
  461     461.000s     5.826e-01     5.832e-01    5.670e-04
  462     462.000s     5.818e-01     5.824e-01    5.408e-04
  463     463.000s     5.811e-01     5.816e-01    5.147e-04
  464     464.000s     5.803e-01     5.808e-01    4.888e-04
  465     465.000s     5.796e-01     5.800e-01    4.631e-04
  466     466.000s     5.788e-01     5.792e-01    4.377e-04
  467     467.000s     5.780e-01     5.785e-01    4.126e-04
  468     468.000s     5.773e-01     5.777e-01    3.877e-04
  469     469.000s     5.765e-01     5.769e-01    3.631e-04
  470     470.000s     5.758e-01     5.761e-01    3.388e-04
  471     471.000s     5.750e-01     5.753e-01    3.146e-04
  472     472.000s     5.743e-01     5.746e-01    2.904e-04
  473     473.000s     5.735e-01     5.738e-01    2.661e-04
  474     474.000s     5.728e-01     5.730e-01    2.418e-04
  475     475.000s     5.720e-01     5.722e-01    2.171e-04
  476     476.000s     5.713e-01     5.714e-01    1.920e-04
  477     477.000s     5.705e-01     5.707e-01    1.664e-04
  478     478.000s     5.698e-01     5.699e-01    1.401e-04
  479     479.000s     5.690e-01     5.691e-01    1.130e-04
  480     480.000s     5.683e-01     5.684e-01    8.511e-05
  481     481.000s     5.675e-01     5.676e-01    5.621e-05
  482     482.000s     5.668e-01     5.668e-01    2.625e-05
  483     483.000s     5.660e-01     5.660e-01   -4.801e-06
  484     484.000s     5.653e-01     5.653e-01   -3.698e-05
  485     485.000s     5.646e-01     5.645e-01   -7.029e-05
  486     486.000s     5.638e-01     5.637e-01   -1.047e-04
  487     487.000s     5.631e-01     5.630e-01   -1.402e-04
  488     488.000s     5.624e-01     5.622e-01   -1.766e-04
  489     489.000s     5.616e-01     5.614e-01   -2.139e-04
  490     490.000s     5.609e-01     5.607e-01   -2.518e-04
  491     491.000s     5.602e-01     5.599e-01   -2.903e-04
  492     492.000s     5.595e-01     5.591e-01   -3.291e-04
