SIMFIT RESULTS
==============

Dataset : /opt/topspin3.5pl6/data/e3b/joachim/87Rb-CRN/9/pdata/992/ct1t2.txt

INTENSITY fit : Exponential decay (T2 or T1rho) : I[t]=I[0]*exp(-t/T)

387 points for Peak 1

Converged after 378 iterations!

Results     Comp. 1       Comp. 2    

I[0]  =   -3.086e-01     1.312e+00  
T     =      90.024s      203.373s  

RSS   =    2.120e-03
SD    =    2.341e-03

Point       Tau          Expt          Calc       Difference

    1       1.000s     1.000e+00     1.000e+00    3.508e-04
    2       2.000s     9.973e-01     9.973e-01    5.233e-05
    3       3.000s     9.943e-01     9.943e-01    1.374e-05
    4       4.000s     9.908e-01     9.912e-01    4.719e-04
    5       5.000s     9.864e-01     9.882e-01    1.800e-03
    6       6.000s     9.817e-01     9.851e-01    3.454e-03
    7       7.000s     9.780e-01     9.821e-01    4.083e-03
    8       8.000s     9.760e-01     9.790e-01    3.019e-03
    9       9.000s     9.749e-01     9.759e-01    1.049e-03
   10      10.000s     9.736e-01     9.729e-01   -7.333e-04
   11      11.000s     9.720e-01     9.698e-01   -2.231e-03
   12      12.000s     9.706e-01     9.667e-01   -3.848e-03
   13      13.000s     9.688e-01     9.636e-01   -5.180e-03
   14      14.000s     9.657e-01     9.605e-01   -5.182e-03
   15      15.000s     9.611e-01     9.575e-01   -3.631e-03
   16      16.000s     9.559e-01     9.544e-01   -1.559e-03
   17      17.000s     9.513e-01     9.513e-01   -2.751e-05
   18      18.000s     9.474e-01     9.482e-01    7.803e-04
   19      19.000s     9.441e-01     9.451e-01    9.804e-04
   20      20.000s     9.416e-01     9.420e-01    3.832e-04
   21      21.000s     9.398e-01     9.389e-01   -9.092e-04
   22      22.000s     9.378e-01     9.358e-01   -2.003e-03
   23      23.000s     9.349e-01     9.327e-01   -2.188e-03
   24      24.000s     9.315e-01     9.296e-01   -1.975e-03
   25      25.000s     9.287e-01     9.265e-01   -2.223e-03
   26      26.000s     9.258e-01     9.233e-01   -2.500e-03
   27      27.000s     9.218e-01     9.202e-01   -1.525e-03
   28      28.000s     9.164e-01     9.171e-01    7.337e-04
   29      29.000s     9.113e-01     9.140e-01    2.685e-03
   30      30.000s     9.076e-01     9.109e-01    3.318e-03
   31      31.000s     9.043e-01     9.078e-01    3.533e-03
   32      32.000s     9.003e-01     9.047e-01    4.352e-03
   33      33.000s     8.967e-01     9.016e-01    4.894e-03
   34      34.000s     8.948e-01     8.985e-01    3.633e-03
   35      35.000s     8.942e-01     8.954e-01    1.136e-03
   36      36.000s     8.925e-01     8.923e-01   -2.041e-04
   37      37.000s     8.885e-01     8.891e-01    6.423e-04
   38      38.000s     8.840e-01     8.860e-01    1.998e-03
   39      39.000s     8.810e-01     8.829e-01    1.977e-03
   40      40.000s     8.789e-01     8.798e-01    9.393e-04
   41      41.000s     8.764e-01     8.767e-01    3.622e-04
   42      42.000s     8.733e-01     8.736e-01    3.208e-04
   43      43.000s     8.709e-01     8.705e-01   -3.420e-04
   44      44.000s     8.692e-01     8.674e-01   -1.768e-03
   45      45.000s     8.670e-01     8.644e-01   -2.643e-03
   46      46.000s     8.635e-01     8.613e-01   -2.221e-03
   47      47.000s     8.596e-01     8.582e-01   -1.410e-03
   48      48.000s     8.564e-01     8.551e-01   -1.286e-03
   49      49.000s     8.536e-01     8.520e-01   -1.604e-03
   50      50.000s     8.505e-01     8.489e-01   -1.576e-03
   51      51.000s     8.471e-01     8.459e-01   -1.276e-03
   52      52.000s     8.441e-01     8.428e-01   -1.300e-03
   53      53.000s     8.413e-01     8.397e-01   -1.587e-03
   54      54.000s     8.383e-01     8.366e-01   -1.631e-03
   55      55.000s     8.351e-01     8.336e-01   -1.564e-03
   56      56.000s     8.324e-01     8.305e-01   -1.885e-03
   57      57.000s     8.296e-01     8.275e-01   -2.137e-03
   58      58.000s     8.255e-01     8.244e-01   -1.092e-03
   59      59.000s     8.201e-01     8.214e-01    1.303e-03
   60      60.000s     8.151e-01     8.183e-01    3.191e-03
   61      61.000s     8.124e-01     8.153e-01    2.841e-03
   62      62.000s     8.115e-01     8.122e-01    7.865e-04
   63      63.000s     8.101e-01     8.092e-01   -9.136e-04
   64      64.000s     8.074e-01     8.062e-01   -1.168e-03
   65      65.000s     8.038e-01     8.032e-01   -6.660e-04
   66      66.000s     8.005e-01     8.001e-01   -3.739e-04
   67      67.000s     7.974e-01     7.971e-01   -2.965e-04
   68      68.000s     7.942e-01     7.941e-01   -7.286e-05
   69      69.000s     7.910e-01     7.911e-01    1.195e-04
   70      70.000s     7.881e-01     7.881e-01    2.326e-05
   71      71.000s     7.849e-01     7.851e-01    2.255e-04
   72      72.000s     7.804e-01     7.821e-01    1.741e-03
   73      73.000s     7.746e-01     7.791e-01    4.559e-03
   74      74.000s     7.690e-01     7.762e-01    7.201e-03
   75      75.000s     7.651e-01     7.732e-01    8.073e-03
   76      76.000s     7.632e-01     7.702e-01    7.038e-03
   77      77.000s     7.619e-01     7.673e-01    5.345e-03
   78      78.000s     7.602e-01     7.643e-01    4.098e-03
   79      79.000s     7.582e-01     7.614e-01    3.155e-03
   80      80.000s     7.567e-01     7.584e-01    1.717e-03
   81      81.000s     7.557e-01     7.555e-01   -2.168e-04
   82      82.000s     7.540e-01     7.525e-01   -1.484e-03
   83      83.000s     7.507e-01     7.496e-01   -1.128e-03
   84      84.000s     7.465e-01     7.467e-01    1.921e-04
   85      85.000s     7.430e-01     7.438e-01    7.498e-04
   86      86.000s     7.410e-01     7.409e-01   -1.822e-04
   87      87.000s     7.394e-01     7.379e-01   -1.413e-03
   88      88.000s     7.365e-01     7.350e-01   -1.426e-03
   89      89.000s     7.326e-01     7.322e-01   -4.809e-04
   90      90.000s     7.296e-01     7.293e-01   -3.752e-04
   91      91.000s     7.285e-01     7.264e-01   -2.089e-03
   92      92.000s     7.279e-01     7.235e-01   -4.400e-03
   93      93.000s     7.259e-01     7.207e-01   -5.258e-03
   94      94.000s     7.219e-01     7.178e-01   -4.131e-03
   95      95.000s     7.174e-01     7.149e-01   -2.447e-03
   96      96.000s     7.140e-01     7.121e-01   -1.875e-03
   97      97.000s     7.119e-01     7.092e-01   -2.662e-03
   98      98.000s     7.101e-01     7.064e-01   -3.699e-03
   99      99.000s     7.074e-01     7.036e-01   -3.818e-03
  100     100.000s     7.036e-01     7.008e-01   -2.804e-03
  101     101.000s     6.993e-01     6.980e-01   -1.365e-03
  102     102.000s     6.955e-01     6.952e-01   -3.522e-04
  103     103.000s     6.924e-01     6.924e-01    5.250e-07
  104     104.000s     6.894e-01     6.896e-01    1.157e-04
  105     105.000s     6.864e-01     6.868e-01    3.717e-04
  106     106.000s     6.835e-01     6.840e-01    5.007e-04
  107     107.000s     6.813e-01     6.812e-01   -5.540e-05
  108     108.000s     6.797e-01     6.785e-01   -1.206e-03
  109     109.000s     6.777e-01     6.757e-01   -2.021e-03
  110     110.000s     6.747e-01     6.730e-01   -1.737e-03
  111     111.000s     6.709e-01     6.702e-01   -7.256e-04
  112     112.000s     6.676e-01     6.675e-01   -7.769e-05
  113     113.000s     6.651e-01     6.647e-01   -3.067e-04
  114     114.000s     6.629e-01     6.620e-01   -8.520e-04
  115     115.000s     6.603e-01     6.593e-01   -9.653e-04
  116     116.000s     6.573e-01     6.566e-01   -7.130e-04
  117     117.000s     6.547e-01     6.539e-01   -7.949e-04
  118     118.000s     6.528e-01     6.512e-01   -1.536e-03
  119     119.000s     6.510e-01     6.485e-01   -2.418e-03
  120     120.000s     6.485e-01     6.459e-01   -2.664e-03
  121     121.000s     6.452e-01     6.432e-01   -2.047e-03
  122     122.000s     6.415e-01     6.405e-01   -9.715e-04
  123     123.000s     6.378e-01     6.379e-01    7.222e-05
  124     124.000s     6.343e-01     6.352e-01    9.057e-04
  125     125.000s     6.311e-01     6.326e-01    1.503e-03
  126     126.000s     6.283e-01     6.300e-01    1.684e-03
  127     127.000s     6.261e-01     6.273e-01    1.197e-03
  128     128.000s     6.246e-01     6.247e-01    1.499e-04
  129     129.000s     6.229e-01     6.221e-01   -7.793e-04
  130     130.000s     6.202e-01     6.195e-01   -7.056e-04
  131     131.000s     6.162e-01     6.169e-01    7.595e-04
  132     132.000s     6.113e-01     6.143e-01    3.043e-03
  133     133.000s     6.070e-01     6.118e-01    4.806e-03
  134     134.000s     6.044e-01     6.092e-01    4.809e-03
  135     135.000s     6.037e-01     6.066e-01    2.942e-03
  136     136.000s     6.035e-01     6.041e-01    5.441e-04
  137     137.000s     6.022e-01     6.015e-01   -6.048e-04
  138     138.000s     5.990e-01     5.990e-01    4.939e-05
  139     139.000s     5.953e-01     5.965e-01    1.219e-03
  140     140.000s     5.928e-01     5.940e-01    1.131e-03
  141     141.000s     5.919e-01     5.914e-01   -4.909e-04
  142     142.000s     5.911e-01     5.889e-01   -2.119e-03
  143     143.000s     5.886e-01     5.864e-01   -2.168e-03
  144     144.000s     5.846e-01     5.840e-01   -6.621e-04
  145     145.000s     5.804e-01     5.815e-01    1.053e-03
  146     146.000s     5.771e-01     5.790e-01    1.854e-03
  147     147.000s     5.749e-01     5.765e-01    1.642e-03
  148     148.000s     5.732e-01     5.741e-01    8.835e-04
  149     149.000s     5.716e-01     5.716e-01    3.415e-05
  150     150.000s     5.697e-01     5.692e-01   -4.994e-04
  151     151.000s     5.672e-01     5.668e-01   -4.408e-04
  152     152.000s     5.643e-01     5.643e-01    7.332e-06
  153     153.000s     5.616e-01     5.619e-01    3.256e-04
  154     154.000s     5.590e-01     5.595e-01    5.033e-04
  155     155.000s     5.559e-01     5.571e-01    1.245e-03
  156     156.000s     5.519e-01     5.547e-01    2.845e-03
  157     157.000s     5.481e-01     5.523e-01    4.226e-03
  158     158.000s     5.460e-01     5.499e-01    3.896e-03
  159     159.000s     5.457e-01     5.476e-01    1.862e-03
  160     160.000s     5.454e-01     5.452e-01   -1.530e-04
  161     161.000s     5.435e-01     5.429e-01   -6.618e-04
  162     162.000s     5.405e-01     5.405e-01    3.311e-05
  163     163.000s     5.375e-01     5.382e-01    6.551e-04
  164     164.000s     5.351e-01     5.358e-01    7.851e-04
  165     165.000s     5.324e-01     5.335e-01    1.162e-03
  166     166.000s     5.289e-01     5.312e-01    2.317e-03
  167     167.000s     5.253e-01     5.289e-01    3.617e-03
  168     168.000s     5.227e-01     5.266e-01    3.884e-03
  169     169.000s     5.217e-01     5.243e-01    2.608e-03
  170     170.000s     5.217e-01     5.220e-01    3.544e-04
  171     171.000s     5.215e-01     5.198e-01   -1.770e-03
  172     172.000s     5.204e-01     5.175e-01   -2.947e-03
  173     173.000s     5.184e-01     5.152e-01   -3.177e-03
  174     174.000s     5.161e-01     5.130e-01   -3.122e-03
  175     175.000s     5.140e-01     5.107e-01   -3.288e-03
  176     176.000s     5.119e-01     5.085e-01   -3.398e-03
  177     177.000s     5.092e-01     5.063e-01   -2.875e-03
  178     178.000s     5.059e-01     5.041e-01   -1.851e-03
  179     179.000s     5.030e-01     5.019e-01   -1.174e-03
  180     180.000s     5.009e-01     4.997e-01   -1.203e-03
  181     181.000s     4.987e-01     4.975e-01   -1.233e-03
  182     182.000s     4.958e-01     4.953e-01   -5.524e-04
  183     183.000s     4.927e-01     4.931e-01    4.144e-04
  184     184.000s     4.902e-01     4.909e-01    7.535e-04
  185     185.000s     4.882e-01     4.888e-01    5.222e-04
  186     186.000s     4.860e-01     4.866e-01    6.348e-04
  187     187.000s     4.832e-01     4.845e-01    1.291e-03
  188     188.000s     4.808e-01     4.823e-01    1.530e-03
  189     189.000s     4.794e-01     4.802e-01    7.491e-04
  190     190.000s     4.783e-01     4.781e-01   -2.491e-04
  191     191.000s     4.764e-01     4.760e-01   -4.366e-04
  192     192.000s     4.739e-01     4.738e-01   -9.505e-05
  193     193.000s     4.719e-01     4.717e-01   -1.906e-04
  194     194.000s     4.703e-01     4.697e-01   -6.536e-04
  195     195.000s     4.681e-01     4.676e-01   -5.043e-04
  196     196.000s     4.652e-01     4.655e-01    3.123e-04
  197     197.000s     4.629e-01     4.634e-01    5.450e-04
  198     198.000s     4.617e-01     4.614e-01   -3.528e-04
  199     199.000s     4.603e-01     4.593e-01   -9.532e-04
  200     200.000s     4.569e-01     4.573e-01    3.483e-04
  201     201.000s     4.523e-01     4.552e-01    2.883e-03
  202     202.000s     4.489e-01     4.532e-01    4.292e-03
  203     203.000s     4.477e-01     4.512e-01    3.452e-03
  204     204.000s     4.475e-01     4.492e-01    1.675e-03
  205     205.000s     4.464e-01     4.472e-01    7.184e-04
  206     206.000s     4.445e-01     4.452e-01    6.500e-04
  207     207.000s     4.428e-01     4.432e-01    3.731e-04
  208     208.000s     4.417e-01     4.412e-01   -4.823e-04
  209     209.000s     4.404e-01     4.392e-01   -1.185e-03
  210     210.000s     4.385e-01     4.372e-01   -1.219e-03
  211     211.000s     4.363e-01     4.353e-01   -1.036e-03
  212     212.000s     4.345e-01     4.333e-01   -1.224e-03
  213     213.000s     4.329e-01     4.314e-01   -1.553e-03
  214     214.000s     4.308e-01     4.294e-01   -1.341e-03
  215     215.000s     4.281e-01     4.275e-01   -5.427e-04
  216     216.000s     4.256e-01     4.256e-01   -3.398e-05
  217     217.000s     4.244e-01     4.237e-01   -6.926e-04
  218     218.000s     4.241e-01     4.218e-01   -2.325e-03
  219     219.000s     4.235e-01     4.199e-01   -3.679e-03
  220     220.000s     4.216e-01     4.180e-01   -3.661e-03
  221     221.000s     4.186e-01     4.161e-01   -2.532e-03
  222     222.000s     4.159e-01     4.142e-01   -1.656e-03
  223     223.000s     4.143e-01     4.123e-01   -1.917e-03
  224     224.000s     4.131e-01     4.105e-01   -2.675e-03
  225     225.000s     4.113e-01     4.086e-01   -2.694e-03
  226     226.000s     4.086e-01     4.068e-01   -1.866e-03
  227     227.000s     4.062e-01     4.049e-01   -1.310e-03
  228     228.000s     4.048e-01     4.031e-01   -1.670e-03
  229     229.000s     4.034e-01     4.013e-01   -2.095e-03
  230     230.000s     4.009e-01     3.994e-01   -1.484e-03
  231     231.000s     3.978e-01     3.976e-01   -1.777e-04
  232     232.000s     3.954e-01     3.958e-01    4.721e-04
  233     233.000s     3.940e-01     3.940e-01    6.352e-05
  234     234.000s     3.925e-01     3.922e-01   -2.496e-04
  235     235.000s     3.898e-01     3.905e-01    6.253e-04
  236     236.000s     3.865e-01     3.887e-01    2.210e-03
  237     237.000s     3.839e-01     3.869e-01    3.053e-03
  238     238.000s     3.828e-01     3.852e-01    2.392e-03
  239     239.000s     3.827e-01     3.834e-01    7.041e-04
  240     240.000s     3.827e-01     3.817e-01   -1.061e-03
  241     241.000s     3.821e-01     3.799e-01   -2.199e-03
  242     242.000s     3.805e-01     3.782e-01   -2.314e-03
  243     243.000s     3.778e-01     3.765e-01   -1.312e-03
  244     244.000s     3.743e-01     3.747e-01    4.232e-04
  245     245.000s     3.708e-01     3.730e-01    2.173e-03
  246     246.000s     3.680e-01     3.713e-01    3.340e-03
  247     247.000s     3.660e-01     3.696e-01    3.635e-03
  248     248.000s     3.650e-01     3.679e-01    2.968e-03
  249     249.000s     3.647e-01     3.662e-01    1.570e-03
  250     250.000s     3.643e-01     3.646e-01    2.386e-04
  251     251.000s     3.630e-01     3.629e-01   -1.060e-04
  252     252.000s     3.606e-01     3.612e-01    5.982e-04
  253     253.000s     3.582e-01     3.596e-01    1.383e-03
  254     254.000s     3.566e-01     3.579e-01    1.346e-03
  255     255.000s     3.557e-01     3.563e-01    5.957e-04
  256     256.000s     3.548e-01     3.546e-01   -1.821e-04
  257     257.000s     3.537e-01     3.530e-01   -6.514e-04
  258     258.000s     3.522e-01     3.514e-01   -8.284e-04
  259     259.000s     3.504e-01     3.498e-01   -5.716e-04
  260     260.000s     3.480e-01     3.482e-01    1.221e-04
  261     261.000s     3.461e-01     3.466e-01    4.345e-04
  262     262.000s     3.457e-01     3.450e-01   -6.980e-04
  263     263.000s     3.464e-01     3.434e-01   -3.003e-03
  264     264.000s     3.465e-01     3.418e-01   -4.658e-03
  265     265.000s     3.445e-01     3.402e-01   -4.239e-03
  266     266.000s     3.410e-01     3.387e-01   -2.359e-03
  267     267.000s     3.378e-01     3.371e-01   -6.876e-04
  268     268.000s     3.353e-01     3.355e-01    2.308e-04
  269     269.000s     3.327e-01     3.340e-01    1.316e-03
  270     270.000s     3.292e-01     3.324e-01    3.232e-03
  271     271.000s     3.256e-01     3.309e-01    5.273e-03
  272     272.000s     3.231e-01     3.294e-01    6.272e-03
  273     273.000s     3.219e-01     3.279e-01    5.937e-03
  274     274.000s     3.215e-01     3.263e-01    4.840e-03
  275     275.000s     3.213e-01     3.248e-01    3.571e-03
  276     276.000s     3.209e-01     3.233e-01    2.430e-03
  277     277.000s     3.202e-01     3.218e-01    1.653e-03
  278     278.000s     3.190e-01     3.203e-01    1.342e-03
  279     279.000s     3.177e-01     3.189e-01    1.198e-03
  280     280.000s     3.166e-01     3.174e-01    7.303e-04
  281     281.000s     3.161e-01     3.159e-01   -2.282e-04
  282     282.000s     3.159e-01     3.144e-01   -1.444e-03
  283     283.000s     3.156e-01     3.130e-01   -2.620e-03
  284     284.000s     3.150e-01     3.115e-01   -3.513e-03
  285     285.000s     3.139e-01     3.101e-01   -3.845e-03
  286     286.000s     3.121e-01     3.086e-01   -3.487e-03
  287     287.000s     3.099e-01     3.072e-01   -2.731e-03
  288     288.000s     3.077e-01     3.058e-01   -1.967e-03
  289     289.000s     3.055e-01     3.044e-01   -1.144e-03
  290     290.000s     3.029e-01     3.029e-01    2.125e-05
  291     291.000s     3.003e-01     3.015e-01    1.264e-03
  292     292.000s     2.983e-01     3.001e-01    1.819e-03
  293     293.000s     2.973e-01     2.987e-01    1.465e-03
  294     294.000s     2.964e-01     2.973e-01    9.209e-04
  295     295.000s     2.952e-01     2.959e-01    7.652e-04
  296     296.000s     2.941e-01     2.946e-01    4.989e-04
  297     297.000s     2.938e-01     2.932e-01   -6.296e-04
  298     298.000s     2.941e-01     2.918e-01   -2.237e-03
  299     299.000s     2.936e-01     2.905e-01   -3.105e-03
  300     300.000s     2.919e-01     2.891e-01   -2.813e-03
  301     301.000s     2.900e-01     2.878e-01   -2.221e-03
  302     302.000s     2.885e-01     2.864e-01   -2.133e-03
  303     303.000s     2.874e-01     2.851e-01   -2.319e-03
  304     304.000s     2.860e-01     2.837e-01   -2.302e-03
  305     305.000s     2.848e-01     2.824e-01   -2.398e-03
  306     306.000s     2.843e-01     2.811e-01   -3.172e-03
  307     307.000s     2.840e-01     2.798e-01   -4.260e-03
  308     308.000s     2.830e-01     2.785e-01   -4.535e-03
  309     309.000s     2.806e-01     2.772e-01   -3.460e-03
  310     310.000s     2.775e-01     2.759e-01   -1.669e-03
  311     311.000s     2.747e-01     2.746e-01   -1.755e-04
  312     312.000s     2.728e-01     2.733e-01    4.898e-04
  313     313.000s     2.717e-01     2.720e-01    3.406e-04
  314     314.000s     2.710e-01     2.707e-01   -2.411e-04
  315     315.000s     2.700e-01     2.695e-01   -5.591e-04
  316     316.000s     2.682e-01     2.682e-01   -3.943e-05
  317     317.000s     2.659e-01     2.669e-01    1.051e-03
  318     318.000s     2.640e-01     2.657e-01    1.717e-03
  319     319.000s     2.631e-01     2.644e-01    1.369e-03
  320     320.000s     2.627e-01     2.632e-01    4.737e-04
  321     321.000s     2.621e-01     2.620e-01   -1.783e-04
  322     322.000s     2.611e-01     2.607e-01   -3.510e-04
  323     323.000s     2.596e-01     2.595e-01   -7.109e-05
  324     324.000s     2.573e-01     2.583e-01    9.760e-04
  325     325.000s     2.541e-01     2.571e-01    2.920e-03
  326     326.000s     2.510e-01     2.558e-01    4.825e-03
  327     327.000s     2.493e-01     2.546e-01    5.321e-03
  328     328.000s     2.492e-01     2.534e-01    4.275e-03
  329     329.000s     2.492e-01     2.523e-01    3.035e-03
  330     330.000s     2.484e-01     2.511e-01    2.680e-03
  331     331.000s     2.471e-01     2.499e-01    2.801e-03
  332     332.000s     2.462e-01     2.487e-01    2.517e-03
  333     333.000s     2.456e-01     2.475e-01    1.979e-03
  334     334.000s     2.443e-01     2.464e-01    2.052e-03
  335     335.000s     2.423e-01     2.452e-01    2.900e-03
  336     336.000s     2.403e-01     2.440e-01    3.795e-03
  337     337.000s     2.387e-01     2.429e-01    4.229e-03
  338     338.000s     2.374e-01     2.417e-01    4.382e-03
  339     339.000s     2.362e-01     2.406e-01    4.403e-03
  340     340.000s     2.354e-01     2.395e-01    4.069e-03
  341     341.000s     2.349e-01     2.383e-01    3.455e-03
  342     342.000s     2.340e-01     2.372e-01    3.199e-03
  343     343.000s     2.325e-01     2.361e-01    3.566e-03
  344     344.000s     2.312e-01     2.350e-01    3.802e-03
  345     345.000s     2.308e-01     2.339e-01    3.071e-03
  346     346.000s     2.311e-01     2.328e-01    1.664e-03
  347     347.000s     2.311e-01     2.317e-01    5.965e-04
  348     348.000s     2.304e-01     2.306e-01    1.762e-04
  349     349.000s     2.298e-01     2.295e-01   -3.122e-04
  350     350.000s     2.298e-01     2.284e-01   -1.466e-03
  351     351.000s     2.303e-01     2.273e-01   -2.953e-03
  352     352.000s     2.302e-01     2.262e-01   -4.008e-03
  353     353.000s     2.293e-01     2.252e-01   -4.193e-03
  354     354.000s     2.276e-01     2.241e-01   -3.465e-03
  355     355.000s     2.251e-01     2.230e-01   -2.042e-03
  356     356.000s     2.226e-01     2.220e-01   -6.182e-04
  357     357.000s     2.212e-01     2.209e-01   -2.365e-04
  358     358.000s     2.212e-01     2.199e-01   -1.365e-03
  359     359.000s     2.221e-01     2.188e-01   -3.249e-03
  360     360.000s     2.224e-01     2.178e-01   -4.613e-03
  361     361.000s     2.217e-01     2.168e-01   -4.926e-03
  362     362.000s     2.203e-01     2.157e-01   -4.557e-03
  363     363.000s     2.186e-01     2.147e-01   -3.884e-03
  364     364.000s     2.165e-01     2.137e-01   -2.860e-03
  365     365.000s     2.142e-01     2.127e-01   -1.573e-03
  366     366.000s     2.123e-01     2.117e-01   -5.995e-04
  367     367.000s     2.111e-01     2.106e-01   -4.066e-04
  368     368.000s     2.103e-01     2.096e-01   -6.958e-04
  369     369.000s     2.094e-01     2.087e-01   -7.688e-04
  370     370.000s     2.081e-01     2.077e-01   -4.190e-04
  371     371.000s     2.068e-01     2.067e-01   -1.028e-04
  372     372.000s     2.059e-01     2.057e-01   -2.339e-04
  373     373.000s     2.053e-01     2.047e-01   -5.981e-04
  374     374.000s     2.043e-01     2.037e-01   -5.824e-04
  375     375.000s     2.026e-01     2.028e-01    1.219e-04
  376     376.000s     2.007e-01     2.018e-01    1.099e-03
  377     377.000s     1.994e-01     2.008e-01    1.482e-03
  378     378.000s     1.992e-01     1.999e-01    7.270e-04
  379     379.000s     1.998e-01     1.989e-01   -8.256e-04
  380     380.000s     2.002e-01     1.980e-01   -2.234e-03
  381     381.000s     1.999e-01     1.970e-01   -2.833e-03
  382     382.000s     1.987e-01     1.961e-01   -2.637e-03
  383     383.000s     1.970e-01     1.952e-01   -1.827e-03
  384     384.000s     1.945e-01     1.942e-01   -2.823e-04
  385     385.000s     1.914e-01     1.933e-01    1.897e-03
  386     386.000s     1.887e-01     1.924e-01    3.649e-03
  387     387.000s     1.880e-01     1.915e-01    3.504e-03

============================================================

