SIMFIT RESULTS
==============

Dataset : /opt/topspin3.5pl6/data/e3b/joachim/87Rb-CRN/16/pdata/992/ct1t2.txt

INTENSITY fit : Exponential decay (T2 or T1rho) : I[t]=I[0]*exp(-t/T)

363 points for Peak 1

Converged after 168 iterations!

Results     Comp. 1       Comp. 2    

I[0]  =    6.726e-01     9.993e-01  
T     =     200.430m      262.253s  

RSS   =    1.588e-02
SD    =    6.615e-03

Point       Tau          Expt          Calc       Difference

    1       1.000s     1.000e+00     1.000e+00    5.414e-05
    2       2.000s     9.957e-01     9.917e-01   -3.958e-03
    3       3.000s     9.911e-01     9.879e-01   -3.232e-03
    4       4.000s     9.866e-01     9.842e-01   -2.462e-03
    5       5.000s     9.818e-01     9.804e-01   -1.364e-03
    6       6.000s     9.770e-01     9.767e-01   -3.290e-04
    7       7.000s     9.731e-01     9.730e-01   -1.718e-04
    8       8.000s     9.701e-01     9.693e-01   -8.148e-04
    9       9.000s     9.667e-01     9.656e-01   -1.162e-03
   10      10.000s     9.624e-01     9.619e-01   -5.335e-04
   11      11.000s     9.579e-01     9.582e-01    3.490e-04
   12      12.000s     9.545e-01     9.546e-01    9.178e-05
   13      13.000s     9.530e-01     9.509e-01   -2.012e-03
   14      14.000s     9.527e-01     9.473e-01   -5.411e-03
   15      15.000s     9.523e-01     9.437e-01   -8.610e-03
   16      16.000s     9.501e-01     9.401e-01   -9.946e-03
   17      17.000s     9.453e-01     9.366e-01   -8.730e-03
   18      18.000s     9.391e-01     9.330e-01   -6.101e-03
   19      19.000s     9.337e-01     9.294e-01   -4.275e-03
   20      20.000s     9.303e-01     9.259e-01   -4.384e-03
   21      21.000s     9.277e-01     9.224e-01   -5.362e-03
   22      22.000s     9.244e-01     9.189e-01   -5.508e-03
   23      23.000s     9.201e-01     9.154e-01   -4.743e-03
   24      24.000s     9.163e-01     9.119e-01   -4.431e-03
   25      25.000s     9.135e-01     9.084e-01   -5.090e-03
   26      26.000s     9.105e-01     9.050e-01   -5.531e-03
   27      27.000s     9.063e-01     9.015e-01   -4.790e-03
   28      28.000s     9.020e-01     8.981e-01   -3.878e-03
   29      29.000s     8.992e-01     8.947e-01   -4.505e-03
   30      30.000s     8.977e-01     8.913e-01   -6.477e-03
   31      31.000s     8.955e-01     8.879e-01   -7.655e-03
   32      32.000s     8.912e-01     8.845e-01   -6.693e-03
   33      33.000s     8.859e-01     8.811e-01   -4.775e-03
   34      34.000s     8.818e-01     8.778e-01   -4.010e-03
   35      35.000s     8.792e-01     8.744e-01   -4.801e-03
   36      36.000s     8.768e-01     8.711e-01   -5.675e-03
   37      37.000s     8.732e-01     8.678e-01   -5.415e-03
   38      38.000s     8.689e-01     8.645e-01   -4.435e-03
   39      39.000s     8.651e-01     8.612e-01   -3.881e-03
   40      40.000s     8.620e-01     8.579e-01   -4.121e-03
   41      41.000s     8.592e-01     8.547e-01   -4.591e-03
   42      42.000s     8.561e-01     8.514e-01   -4.696e-03
   43      43.000s     8.524e-01     8.482e-01   -4.260e-03
   44      44.000s     8.482e-01     8.449e-01   -3.244e-03
   45      45.000s     8.433e-01     8.417e-01   -1.612e-03
   46      46.000s     8.382e-01     8.385e-01    2.951e-04
   47      47.000s     8.337e-01     8.353e-01    1.639e-03
   48      48.000s     8.304e-01     8.321e-01    1.710e-03
   49      49.000s     8.283e-01     8.290e-01    6.661e-04
   50      50.000s     8.264e-01     8.258e-01   -5.362e-04
   51      51.000s     8.237e-01     8.227e-01   -1.023e-03
   52      52.000s     8.203e-01     8.195e-01   -7.941e-04
   53      53.000s     8.170e-01     8.164e-01   -6.080e-04
   54      54.000s     8.144e-01     8.133e-01   -1.080e-03
   55      55.000s     8.121e-01     8.102e-01   -1.923e-03
   56      56.000s     8.094e-01     8.071e-01   -2.232e-03
   57      57.000s     8.057e-01     8.041e-01   -1.607e-03
   58      58.000s     8.018e-01     8.010e-01   -8.056e-04
   59      59.000s     7.989e-01     7.980e-01   -9.837e-04
   60      60.000s     7.972e-01     7.949e-01   -2.315e-03
   61      61.000s     7.957e-01     7.919e-01   -3.771e-03
   62      62.000s     7.933e-01     7.889e-01   -4.372e-03
   63      63.000s     7.901e-01     7.859e-01   -4.171e-03
   64      64.000s     7.866e-01     7.829e-01   -3.679e-03
   65      65.000s     7.828e-01     7.799e-01   -2.843e-03
   66      66.000s     7.783e-01     7.769e-01   -1.342e-03
   67      67.000s     7.737e-01     7.740e-01    3.065e-04
   68      68.000s     7.701e-01     7.710e-01    9.212e-04
   69      69.000s     7.679e-01     7.681e-01    2.197e-04
   70      70.000s     7.658e-01     7.652e-01   -6.135e-04
   71      71.000s     7.628e-01     7.623e-01   -4.903e-04
   72      72.000s     7.592e-01     7.594e-01    1.369e-04
   73      73.000s     7.563e-01     7.565e-01    1.752e-04
   74      74.000s     7.539e-01     7.536e-01   -3.365e-04
   75      75.000s     7.512e-01     7.507e-01   -4.900e-04
   76      76.000s     7.482e-01     7.479e-01   -3.303e-04
   77      77.000s     7.461e-01     7.450e-01   -1.031e-03
   78      78.000s     7.451e-01     7.422e-01   -2.884e-03
   79      79.000s     7.438e-01     7.394e-01   -4.413e-03
   80      80.000s     7.409e-01     7.366e-01   -4.385e-03
   81      81.000s     7.375e-01     7.338e-01   -3.700e-03
   82      82.000s     7.350e-01     7.310e-01   -4.040e-03
   83      83.000s     7.334e-01     7.282e-01   -5.252e-03
   84      84.000s     7.310e-01     7.254e-01   -5.593e-03
   85      85.000s     7.271e-01     7.226e-01   -4.460e-03
   86      86.000s     7.232e-01     7.199e-01   -3.272e-03
   87      87.000s     7.203e-01     7.172e-01   -3.189e-03
   88      88.000s     7.178e-01     7.144e-01   -3.387e-03
   89      89.000s     7.142e-01     7.117e-01   -2.541e-03
   90      90.000s     7.099e-01     7.090e-01   -9.431e-04
   91      91.000s     7.062e-01     7.063e-01    1.052e-04
   92      92.000s     7.033e-01     7.036e-01    3.354e-04
   93      93.000s     7.004e-01     7.009e-01    5.813e-04
   94      94.000s     6.972e-01     6.983e-01    1.108e-03
   95      95.000s     6.943e-01     6.956e-01    1.315e-03
   96      96.000s     6.917e-01     6.930e-01    1.211e-03
   97      97.000s     6.885e-01     6.903e-01    1.801e-03
   98      98.000s     6.842e-01     6.877e-01    3.468e-03
   99      99.000s     6.800e-01     6.851e-01    5.099e-03
  100     100.000s     6.769e-01     6.825e-01    5.555e-03
  101     101.000s     6.748e-01     6.799e-01    5.107e-03
  102     102.000s     6.727e-01     6.773e-01    4.620e-03
  103     103.000s     6.706e-01     6.747e-01    4.140e-03
  104     104.000s     6.688e-01     6.721e-01    3.348e-03
  105     105.000s     6.669e-01     6.696e-01    2.731e-03
  106     106.000s     6.641e-01     6.670e-01    2.954e-03
  107     107.000s     6.611e-01     6.645e-01    3.361e-03
  108     108.000s     6.594e-01     6.620e-01    2.592e-03
  109     109.000s     6.586e-01     6.594e-01    8.274e-04
  110     110.000s     6.570e-01     6.569e-01   -1.773e-05
  111     111.000s     6.533e-01     6.544e-01    1.118e-03
  112     112.000s     6.490e-01     6.519e-01    2.919e-03
  113     113.000s     6.459e-01     6.495e-01    3.589e-03
  114     114.000s     6.438e-01     6.470e-01    3.209e-03
  115     115.000s     6.414e-01     6.445e-01    3.088e-03
  116     116.000s     6.385e-01     6.421e-01    3.600e-03
  117     117.000s     6.356e-01     6.396e-01    4.080e-03
  118     118.000s     6.327e-01     6.372e-01    4.460e-03
  119     119.000s     6.294e-01     6.348e-01    5.408e-03
  120     120.000s     6.257e-01     6.324e-01    6.664e-03
  121     121.000s     6.233e-01     6.300e-01    6.697e-03
  122     122.000s     6.229e-01     6.276e-01    4.684e-03
  123     123.000s     6.233e-01     6.252e-01    1.831e-03
  124     124.000s     6.228e-01     6.228e-01   -2.816e-05
  125     125.000s     6.208e-01     6.204e-01   -4.106e-04
  126     126.000s     6.181e-01     6.181e-01   -4.464e-05
  127     127.000s     6.152e-01     6.157e-01    5.003e-04
  128     128.000s     6.122e-01     6.134e-01    1.122e-03
  129     129.000s     6.094e-01     6.110e-01    1.628e-03
  130     130.000s     6.068e-01     6.087e-01    1.910e-03
  131     131.000s     6.040e-01     6.064e-01    2.428e-03
  132     132.000s     6.006e-01     6.041e-01    3.522e-03
  133     133.000s     5.974e-01     6.018e-01    4.355e-03
  134     134.000s     5.958e-01     5.995e-01    3.710e-03
  135     135.000s     5.952e-01     5.972e-01    2.007e-03
  136     136.000s     5.936e-01     5.949e-01    1.338e-03
  137     137.000s     5.898e-01     5.927e-01    2.846e-03
  138     138.000s     5.854e-01     5.904e-01    5.023e-03
  139     139.000s     5.827e-01     5.882e-01    5.488e-03
  140     140.000s     5.820e-01     5.859e-01    3.904e-03
  141     141.000s     5.815e-01     5.837e-01    2.153e-03
  142     142.000s     5.795e-01     5.815e-01    1.956e-03
  143     143.000s     5.760e-01     5.793e-01    3.283e-03
  144     144.000s     5.720e-01     5.771e-01    5.086e-03
  145     145.000s     5.682e-01     5.749e-01    6.614e-03
  146     146.000s     5.650e-01     5.727e-01    7.631e-03
  147     147.000s     5.625e-01     5.705e-01    8.017e-03
  148     148.000s     5.606e-01     5.683e-01    7.745e-03
  149     149.000s     5.591e-01     5.662e-01    7.079e-03
  150     150.000s     5.575e-01     5.640e-01    6.532e-03
  151     151.000s     5.552e-01     5.619e-01    6.620e-03
  152     152.000s     5.522e-01     5.597e-01    7.559e-03
  153     153.000s     5.487e-01     5.576e-01    8.854e-03
  154     154.000s     5.462e-01     5.555e-01    9.298e-03
  155     155.000s     5.454e-01     5.534e-01    7.946e-03
  156     156.000s     5.460e-01     5.512e-01    5.248e-03
  157     157.000s     5.464e-01     5.492e-01    2.712e-03
  158     158.000s     5.458e-01     5.471e-01    1.301e-03
  159     159.000s     5.442e-01     5.450e-01    7.477e-04
  160     160.000s     5.423e-01     5.429e-01    6.302e-04
  161     161.000s     5.396e-01     5.408e-01    1.239e-03
  162     162.000s     5.361e-01     5.388e-01    2.717e-03
  163     163.000s     5.326e-01     5.367e-01    4.143e-03
  164     164.000s     5.301e-01     5.347e-01    4.586e-03
  165     165.000s     5.280e-01     5.327e-01    4.667e-03
  166     166.000s     5.249e-01     5.306e-01    5.760e-03
  167     167.000s     5.210e-01     5.286e-01    7.641e-03
  168     168.000s     5.183e-01     5.266e-01    8.287e-03
  169     169.000s     5.181e-01     5.246e-01    6.514e-03
  170     170.000s     5.189e-01     5.226e-01    3.652e-03
  171     171.000s     5.188e-01     5.206e-01    1.819e-03
  172     172.000s     5.171e-01     5.186e-01    1.512e-03
  173     173.000s     5.147e-01     5.166e-01    1.933e-03
  174     174.000s     5.118e-01     5.147e-01    2.859e-03
  175     175.000s     5.080e-01     5.127e-01    4.695e-03
  176     176.000s     5.038e-01     5.108e-01    6.927e-03
  177     177.000s     5.007e-01     5.088e-01    8.100e-03
  178     178.000s     4.992e-01     5.069e-01    7.729e-03
  179     179.000s     4.980e-01     5.050e-01    7.012e-03
  180     180.000s     4.960e-01     5.030e-01    7.071e-03
  181     181.000s     4.936e-01     5.011e-01    7.487e-03
  182     182.000s     4.919e-01     4.992e-01    7.343e-03
  183     183.000s     4.905e-01     4.973e-01    6.837e-03
  184     184.000s     4.885e-01     4.954e-01    6.881e-03
  185     185.000s     4.859e-01     4.935e-01    7.652e-03
  186     186.000s     4.831e-01     4.917e-01    8.610e-03
  187     187.000s     4.802e-01     4.898e-01    9.602e-03
  188     188.000s     4.771e-01     4.879e-01    1.078e-02
  189     189.000s     4.745e-01     4.861e-01    1.156e-02
  190     190.000s     4.733e-01     4.842e-01    1.093e-02
  191     191.000s     4.732e-01     4.824e-01    9.153e-03
  192     192.000s     4.727e-01     4.805e-01    7.890e-03
  193     193.000s     4.706e-01     4.787e-01    8.090e-03
  194     194.000s     4.682e-01     4.769e-01    8.667e-03
  195     195.000s     4.669e-01     4.751e-01    8.203e-03
  196     196.000s     4.662e-01     4.733e-01    7.102e-03
  197     197.000s     4.646e-01     4.715e-01    6.834e-03
  198     198.000s     4.621e-01     4.697e-01    7.523e-03
  199     199.000s     4.601e-01     4.679e-01    7.765e-03
  200     200.000s     4.592e-01     4.661e-01    6.940e-03
  201     201.000s     4.581e-01     4.643e-01    6.245e-03
  202     202.000s     4.558e-01     4.626e-01    6.763e-03
  203     203.000s     4.531e-01     4.608e-01    7.669e-03
  204     204.000s     4.515e-01     4.590e-01    7.504e-03
  205     205.000s     4.508e-01     4.573e-01    6.536e-03
  206     206.000s     4.491e-01     4.556e-01    6.455e-03
  207     207.000s     4.461e-01     4.538e-01    7.759e-03
  208     208.000s     4.433e-01     4.521e-01    8.829e-03
  209     209.000s     4.422e-01     4.504e-01    8.197e-03
  210     210.000s     4.419e-01     4.487e-01    6.744e-03
  211     211.000s     4.403e-01     4.470e-01    6.626e-03
  212     212.000s     4.369e-01     4.453e-01    8.314e-03
  213     213.000s     4.338e-01     4.436e-01    9.805e-03
  214     214.000s     4.328e-01     4.419e-01    9.037e-03
  215     215.000s     4.338e-01     4.402e-01    6.416e-03
  216     216.000s     4.341e-01     4.385e-01    4.411e-03
  217     217.000s     4.319e-01     4.368e-01    4.939e-03
  218     218.000s     4.275e-01     4.352e-01    7.643e-03
  219     219.000s     4.229e-01     4.335e-01    1.061e-02
  220     220.000s     4.197e-01     4.319e-01    1.218e-02
  221     221.000s     4.183e-01     4.302e-01    1.197e-02
  222     222.000s     4.181e-01     4.286e-01    1.051e-02
  223     223.000s     4.182e-01     4.270e-01    8.722e-03
  224     224.000s     4.179e-01     4.253e-01    7.461e-03
  225     225.000s     4.165e-01     4.237e-01    7.246e-03
  226     226.000s     4.142e-01     4.221e-01    7.907e-03
  227     227.000s     4.118e-01     4.205e-01    8.695e-03
  228     228.000s     4.100e-01     4.189e-01    8.906e-03
  229     229.000s     4.089e-01     4.173e-01    8.393e-03
  230     230.000s     4.083e-01     4.157e-01    7.399e-03
  231     231.000s     4.080e-01     4.141e-01    6.129e-03
  232     232.000s     4.079e-01     4.126e-01    4.690e-03
  233     233.000s     4.076e-01     4.110e-01    3.357e-03
  234     234.000s     4.069e-01     4.094e-01    2.542e-03
  235     235.000s     4.054e-01     4.079e-01    2.426e-03
  236     236.000s     4.036e-01     4.063e-01    2.760e-03
  237     237.000s     4.017e-01     4.048e-01    3.080e-03
  238     238.000s     4.002e-01     4.032e-01    3.001e-03
  239     239.000s     3.993e-01     4.017e-01    2.407e-03
  240     240.000s     3.985e-01     4.002e-01    1.626e-03
  241     241.000s     3.972e-01     3.986e-01    1.397e-03
  242     242.000s     3.949e-01     3.971e-01    2.248e-03
  243     243.000s     3.919e-01     3.956e-01    3.746e-03
  244     244.000s     3.894e-01     3.941e-01    4.742e-03
  245     245.000s     3.879e-01     3.926e-01    4.670e-03
  246     246.000s     3.869e-01     3.911e-01    4.228e-03
  247     247.000s     3.853e-01     3.896e-01    4.366e-03
  248     248.000s     3.832e-01     3.881e-01    4.903e-03
  249     249.000s     3.818e-01     3.867e-01    4.843e-03
  250     250.000s     3.812e-01     3.852e-01    3.984e-03
  251     251.000s     3.803e-01     3.837e-01    3.404e-03
  252     252.000s     3.782e-01     3.823e-01    4.050e-03
  253     253.000s     3.753e-01     3.808e-01    5.498e-03
  254     254.000s     3.728e-01     3.794e-01    6.612e-03
  255     255.000s     3.710e-01     3.779e-01    6.909e-03
  256     256.000s     3.699e-01     3.765e-01    6.615e-03
  257     257.000s     3.693e-01     3.751e-01    5.751e-03
  258     258.000s     3.695e-01     3.736e-01    4.081e-03
  259     259.000s     3.702e-01     3.722e-01    2.004e-03
  260     260.000s     3.702e-01     3.708e-01    6.100e-04
  261     261.000s     3.689e-01     3.694e-01    4.750e-04
  262     262.000s     3.670e-01     3.680e-01    9.553e-04
  263     263.000s     3.655e-01     3.666e-01    1.100e-03
  264     264.000s     3.644e-01     3.652e-01    7.492e-04
  265     265.000s     3.635e-01     3.638e-01    2.329e-04
  266     266.000s     3.629e-01     3.624e-01   -5.381e-04
  267     267.000s     3.629e-01     3.610e-01   -1.865e-03
  268     268.000s     3.629e-01     3.596e-01   -3.302e-03
  269     269.000s     3.620e-01     3.583e-01   -3.766e-03
  270     270.000s     3.598e-01     3.569e-01   -2.881e-03
  271     271.000s     3.572e-01     3.556e-01   -1.603e-03
  272     272.000s     3.553e-01     3.542e-01   -1.129e-03
  273     273.000s     3.545e-01     3.529e-01   -1.606e-03
  274     274.000s     3.538e-01     3.515e-01   -2.300e-03
  275     275.000s     3.529e-01     3.502e-01   -2.686e-03
  276     276.000s     3.516e-01     3.488e-01   -2.810e-03
  277     277.000s     3.503e-01     3.475e-01   -2.791e-03
  278     278.000s     3.488e-01     3.462e-01   -2.574e-03
  279     279.000s     3.471e-01     3.449e-01   -2.260e-03
  280     280.000s     3.457e-01     3.436e-01   -2.164e-03
  281     281.000s     3.445e-01     3.423e-01   -2.280e-03
  282     282.000s     3.430e-01     3.409e-01   -2.055e-03
  283     283.000s     3.407e-01     3.397e-01   -1.046e-03
  284     284.000s     3.380e-01     3.384e-01    3.361e-04
  285     285.000s     3.360e-01     3.371e-01    1.076e-03
  286     286.000s     3.352e-01     3.358e-01    5.505e-04
  287     287.000s     3.354e-01     3.345e-01   -9.116e-04
  288     288.000s     3.357e-01     3.332e-01   -2.451e-03
  289     289.000s     3.354e-01     3.320e-01   -3.461e-03
  290     290.000s     3.346e-01     3.307e-01   -3.887e-03
  291     291.000s     3.334e-01     3.294e-01   -3.947e-03
  292     292.000s     3.320e-01     3.282e-01   -3.780e-03
  293     293.000s     3.304e-01     3.269e-01   -3.430e-03
  294     294.000s     3.288e-01     3.257e-01   -3.067e-03
  295     295.000s     3.275e-01     3.245e-01   -3.016e-03
  296     296.000s     3.267e-01     3.232e-01   -3.437e-03
  297     297.000s     3.260e-01     3.220e-01   -4.033e-03
  298     298.000s     3.250e-01     3.208e-01   -4.243e-03
  299     299.000s     3.233e-01     3.195e-01   -3.782e-03
  300     300.000s     3.212e-01     3.183e-01   -2.896e-03
  301     301.000s     3.192e-01     3.171e-01   -2.088e-03
  302     302.000s     3.177e-01     3.159e-01   -1.766e-03
  303     303.000s     3.169e-01     3.147e-01   -2.186e-03
  304     304.000s     3.169e-01     3.135e-01   -3.409e-03
  305     305.000s     3.174e-01     3.123e-01   -5.032e-03
  306     306.000s     3.173e-01     3.111e-01   -6.168e-03
  307     307.000s     3.161e-01     3.099e-01   -6.119e-03
  308     308.000s     3.139e-01     3.088e-01   -5.119e-03
  309     309.000s     3.116e-01     3.076e-01   -4.055e-03
  310     310.000s     3.099e-01     3.064e-01   -3.430e-03
  311     311.000s     3.083e-01     3.053e-01   -3.005e-03
  312     312.000s     3.067e-01     3.041e-01   -2.625e-03
  313     313.000s     3.057e-01     3.029e-01   -2.795e-03
  314     314.000s     3.057e-01     3.018e-01   -3.913e-03
  315     315.000s     3.059e-01     3.006e-01   -5.273e-03
  316     316.000s     3.052e-01     2.995e-01   -5.663e-03
  317     317.000s     3.034e-01     2.984e-01   -5.040e-03
  318     318.000s     3.021e-01     2.972e-01   -4.863e-03
  319     319.000s     3.024e-01     2.961e-01   -6.303e-03
  320     320.000s     3.036e-01     2.950e-01   -8.629e-03
  321     321.000s     3.038e-01     2.938e-01   -9.993e-03
  322     322.000s     3.024e-01     2.927e-01   -9.636e-03
  323     323.000s     3.003e-01     2.916e-01   -8.655e-03
  324     324.000s     2.990e-01     2.905e-01   -8.523e-03
  325     325.000s     2.989e-01     2.894e-01   -9.479e-03
  326     326.000s     2.990e-01     2.883e-01   -1.067e-02
  327     327.000s     2.986e-01     2.872e-01   -1.138e-02
  328     328.000s     2.977e-01     2.861e-01   -1.163e-02
  329     329.000s     2.967e-01     2.850e-01   -1.172e-02
  330     330.000s     2.957e-01     2.839e-01   -1.175e-02
  331     331.000s     2.945e-01     2.828e-01   -1.170e-02
  332     332.000s     2.935e-01     2.818e-01   -1.171e-02
  333     333.000s     2.926e-01     2.807e-01   -1.194e-02
  334     334.000s     2.922e-01     2.796e-01   -1.253e-02
  335     335.000s     2.921e-01     2.786e-01   -1.358e-02
  336     336.000s     2.925e-01     2.775e-01   -1.505e-02
  337     337.000s     2.927e-01     2.764e-01   -1.624e-02
  338     338.000s     2.914e-01     2.754e-01   -1.602e-02
  339     339.000s     2.882e-01     2.743e-01   -1.388e-02
  340     340.000s     2.842e-01     2.733e-01   -1.091e-02
  341     341.000s     2.813e-01     2.723e-01   -9.055e-03
  342     342.000s     2.805e-01     2.712e-01   -9.266e-03
  343     343.000s     2.807e-01     2.702e-01   -1.048e-02
  344     344.000s     2.800e-01     2.692e-01   -1.088e-02
  345     345.000s     2.782e-01     2.681e-01   -1.002e-02
  346     346.000s     2.764e-01     2.671e-01   -9.255e-03
  347     347.000s     2.762e-01     2.661e-01   -1.013e-02
  348     348.000s     2.777e-01     2.651e-01   -1.263e-02
  349     349.000s     2.794e-01     2.641e-01   -1.527e-02
  350     350.000s     2.797e-01     2.631e-01   -1.667e-02
  351     351.000s     2.788e-01     2.621e-01   -1.677e-02
  352     352.000s     2.776e-01     2.611e-01   -1.656e-02
  353     353.000s     2.770e-01     2.601e-01   -1.695e-02
  354     354.000s     2.770e-01     2.591e-01   -1.795e-02
  355     355.000s     2.769e-01     2.581e-01   -1.879e-02
  356     356.000s     2.758e-01     2.571e-01   -1.872e-02
  357     357.000s     2.740e-01     2.561e-01   -1.784e-02
  358     358.000s     2.722e-01     2.552e-01   -1.704e-02
  359     359.000s     2.713e-01     2.542e-01   -1.709e-02
  360     360.000s     2.709e-01     2.532e-01   -1.762e-02
  361     361.000s     2.696e-01     2.523e-01   -1.735e-02
  362     362.000s     2.666e-01     2.513e-01   -1.534e-02
  363     363.000s     2.626e-01     2.504e-01   -1.222e-02

============================================================

